20324,1372,1560,2114,1407,49500,66429,98868,49500,,IMU->,1,-79,2048,2049,
19958,1349,1529,2005,1409,49500,66429,98868,49500,,IMU->,-1,-82,2049,2050,
19958,1361,1503,1929,1414,49500,66429,98868,49500,,IMU->,-2,-84,2050,2051,
19989,1361,1468,1791,1410,49500,66429,98868,49500,,IMU->,4,-80,2048,2049,
19958,1357,1432,1679,1400,49500,66429,98868,49500,,IMU->,-3,-78,2050,2051,
19989,1363,1404,1602,1410,49500,66429,98868,49500,,IMU->,1,-74,2048,2049,
19958,1351,1374,1493,1397,49500,66429,98868,49500,,IMU->,0,-75,2049,2050,
19958,1360,1342,1438,1405,49500,66429,98868,49500,,IMU->,-6,-78,2048,2049,
19958,1361,1340,1369,1414,49500,66429,98868,49500,,IMU->,-1,-77,2051,2052,
19989,1352,1318,1313,1396,49500,66429,98868,49500,,IMU->,0,-81,2047,2048,
20324,1362,1308,1274,1403,49500,66429,98868,49500,,IMU->,3,-77,2050,2051,
19958,1353,1297,1243,1396,49500,66429,98868,49500,,IMU->,3,-79,2053,2054,
19958,1342,1266,1217,1398,49500,66429,98868,49500,,IMU->,1,-81,2048,2049,
19958,1357,1293,1208,1420,49500,66429,98868,49500,,IMU->,0,-78,2047,2048,
19958,1355,1294,1210,1395,49500,66429,98868,49500,,IMU->,-1,-82,2051,2052,
19989,1353,1281,1186,1409,49500,66429,98868,49500,,IMU->,0,-80,2048,2049,
19958,1358,1301,1189,1407,49500,66429,98868,49500,,IMU->,0,-75,2048,2049,
19958,1348,1273,1180,1388,49500,66429,98868,49500,,IMU->,0,-77,2048,2049,
19958,1340,1272,1153,1398,49500,66429,98868,49500,,IMU->,-1,-78,2045,2046,
20324,1354,1283,1127,1394,49500,66429,98868,49500,,IMU->,-1,-83,2046,2047,
19989,1355,1251,1097,1395,49500,66429,98868,49500,,IMU->,-4,-81,2047,2048,
19989,1358,1263,1051,1411,49500,66429,98868,49500,,IMU->,-1,-79,2051,2052,
19989,1359,1244,1001,1403,49500,66429,98868,49500,,IMU->,2,-82,2047,2048,
19958,1351,1221,943,1405,49500,66429,98868,49500,,IMU->,0,-78,2049,2050,
19958,1353,1216,896,1401,49500,66429,98868,49500,,IMU->,3,-79,2051,2052,
19958,1357,1205,905,1395,49500,66429,98868,49500,,IMU->,2,-79,2048,2049,
19958,1341,1254,1091,1410,49500,66429,98868,49500,,IMU->,-3,-80,2050,2051,
19989,1357,1381,1585,1404,49500,66429,98868,49500,,IMU->,-1,-78,2048,2049,
19958,1362,1558,2129,1411,49500,66429,98868,49500,,IMU->,0,-78,2050,2051,
19958,1359,1720,2627,1422,49500,66429,98868,49500,,IMU->,-1,-79,2049,2050,
19989,1370,1802,2922,1419,49500,66429,98868,49500,,IMU->,-3,-81,2052,2053,
19989,1364,1845,2977,1417,49500,66429,98868,49500,,IMU->,-3,-80,2052,2053,
19989,1371,1847,2976,1422,49500,66429,98868,49500,,IMU->,2,-80,2054,2055,
20324,1380,1829,2855,1427,49500,66429,98868,49500,,IMU->,-1,-81,2047,2048,
19958,1365,1772,2626,1409,49500,66429,98868,49500,,IMU->,0,-81,2049,2050,
19958,1373,1706,2419,1421,49500,66429,98868,49500,,IMU->,1,-79,2047,2048,
19958,1378,1657,2191,1429,49500,66429,98868,49500,,IMU->,0,-82,2048,2049,
19958,1363,1581,1974,1408,49500,66429,98868,49500,,IMU->,-2,-80,2052,2053,
19989,1368,1523,1766,1418,49500,66429,98868,49500,,IMU->,-3,-80,2052,2053,
19958,1367,1481,1616,1407,49500,66429,98868,49500,,IMU->,-1,-80,2049,2050,
19989,1363,1447,1551,1406,49500,66429,98868,49500,,IMU->,-2,-76,2050,2051,
19958,1363,1455,1562,1419,49500,66429,98868,49500,,IMU->,-1,-78,2049,2050,
19958,1355,1466,1628,1402,49500,66429,98868,49500,,IMU->,0,-80,2050,2051,
20324,1364,1501,1722,1418,49500,66429,98868,49500,,IMU->,1,-80,2045,2046,
19958,1369,1549,1851,1409,49500,66429,98868,49500,,IMU->,-1,-78,2052,2053,
19958,1369,1567,1947,1412,49500,66429,98868,49500,,IMU->,3,-78,2051,2052,
19958,1372,1603,1989,1427,49500,66429,98868,49500,,IMU->,2,-81,2048,2049,
19958,1377,1604,2006,1413,49500,66429,98868,49500,,IMU->,0,-80,2049,2050,
19958,1366,1596,1953,1422,49500,66429,98868,49500,,IMU->,-2,-78,2047,2048,
19958,1364,1592,1897,1417,49500,66429,98868,49500,,IMU->,-5,-79,2049,2050,
19989,1363,1540,1794,1407,49500,66429,98868,49500,,IMU->,0,-82,2047,2048,
19958,1357,1521,1680,1410,49500,66429,98868,49500,,IMU->,-5,-79,2051,2052,
20324,1368,1498,1603,1403,49500,66429,98868,49500,,IMU->,-2,-75,2049,2050,
19958,1366,1470,1514,1413,49500,66429,98868,49500,,IMU->,0,-77,2049,2050,
19958,1369,1454,1423,1412,49500,66429,98868,49500,,IMU->,0,-78,2049,2050,
19958,1374,1427,1347,1419,49500,66429,98868,49500,,IMU->,0,-80,2047,2048,
19958,1363,1407,1283,1414,49500,66429,98868,49500,,IMU->,-1,-82,2049,2050,
19989,1360,1382,1227,1409,49500,66429,98868,49500,,IMU->,5,-80,2044,2045,
19958,1365,1372,1187,1415,49500,66429,98868,49500,,IMU->,2,-82,2048,2049,
19958,1351,1370,1150,1403,49500,66429,98868,49500,,IMU->,0,-78,2052,2053,
19958,1359,1354,1123,1405,49500,66429,98868,49500,,IMU->,2,-81,2049,2050,
20324,1365,1362,1100,1418,49500,66429,98868,49500,,IMU->,-1,-84,2050,2051,
19927,1365,1355,1117,1404,49500,66429,98868,49500,,IMU->,1,-80,2048,2049,
19958,1357,1351,1099,1413,49500,66429,98868,49500,,IMU->,-3,-80,2053,2054,
19958,1357,1359,1080,1406,49500,66429,98868,49500,,IMU->,-2,-76,2053,2054,
19958,1367,1352,1085,1408,49500,66165,98307,49500,,IMU->,-2,-76,2050,2051,
19989,1356,1069,487,1413,49500,66165,98307,49500,,IMU->,-1,-77,2049,2050,
19989,1365,1067,494,1409,49500,66165,98307,49500,,IMU->,-2,-79,2050,2051,
19989,1365,1062,460,1412,49500,66165,98307,49500,,IMU->,0,-84,2050,2051,
19958,1356,1068,421,1407,49500,66165,98307,49500,,IMU->,1,-83,2047,2048,
19958,1357,1039,383,1409,49500,66165,98307,49500,,IMU->,2,-81,2048,2049,
20324,1367,1034,327,1422,49500,66165,98307,49500,,IMU->,-1,-83,2047,2048,
19927,1368,1013,280,1404,49500,66165,98307,49500,,IMU->,-3,-83,2049,2050,
19989,1364,989,212,1408,49500,66165,98307,49500,,IMU->,-1,-79,2047,2048,
19989,1351,985,182,1410,49500,66165,98307,49500,,IMU->,0,-79,2049,2050,
19958,1364,979,204,1403,49500,66165,98307,49500,,IMU->,2,-73,2049,2050,
19958,1363,1040,419,1409,49500,66165,98307,49500,,IMU->,-3,-76,2050,2051,
19958,1362,1171,935,1413,49500,66165,98307,49500,,IMU->,-5,-81,2051,2052,
19958,1378,1348,1479,1429,49500,66165,98307,49500,,IMU->,-1,-80,2048,2049,
19989,1371,1497,1978,1422,49500,66165,98307,49500,,IMU->,0,-82,2047,2048,
19958,1377,1584,2251,1416,49500,66165,98307,49500,,IMU->,0,-67,2046,2047,
20324,1378,1630,2328,1431,49500,66165,98307,49500,,IMU->,2,-83,2056,2057,
19927,1376,1622,2302,1421,49500,66165,98307,49500,,IMU->,1,-82,2051,2052,
19958,1375,1581,2160,1421,49500,66165,98307,49500,,IMU->,3,-83,2051,2052,
19958,1372,1541,1945,1422,49500,66165,98307,49500,,IMU->,0,-83,2054,2055,
19958,1377,1469,1712,1417,49500,66165,98307,49500,,IMU->,-2,-78,2047,2048,
19958,1371,1407,1473,1428,49500,66165,98307,49500,,IMU->,-1,-79,2050,2051,
19989,1363,1345,1254,1422,49500,66165,98307,49500,,IMU->,0,-72,2048,2049,
19958,1371,1271,1053,1420,49500,66165,98307,49500,,IMU->,-1,-80,2047,2048,
19989,1365,1234,893,1411,49500,66165,98307,49500,,IMU->,-6,-77,2045,2046,
20324,1370,1217,845,1409,49500,66165,98307,49500,,IMU->,0,-81,2053,2054,
19958,1376,1223,863,1431,49500,66165,98307,49500,,IMU->,-1,-79,2049,2050,
19958,1369,1232,939,1416,49500,66165,98307,49500,,IMU->,0,-81,2050,2051,
19958,1377,1274,1056,1417,49500,66165,98307,49500,,IMU->,2,-81,2046,2047,
19958,1368,1317,1183,1411,49500,66165,98307,49500,,IMU->,3,-81,2053,2054,
19958,1371,1342,1290,1410,49500,66165,98307,49500,,IMU->,0,-81,2050,2051,
19958,1365,1371,1337,1418,49500,66165,98307,49500,,IMU->,-3,-78,2045,2046,
19958,1367,1376,1351,1417,49500,66165,98307,49500,,IMU->,-1,-75,2047,2048,
19958,1371,1380,1321,1434,49500,66165,98307,49500,,IMU->,0,-74,2046,2047,
20324,1371,1367,1233,1413,49500,66165,98307,49500,,IMU->,-2,-83,2048,2049,
19958,1375,1330,1159,1415,49500,66165,98307,49500,,IMU->,-3,-82,2046,2047,
19989,1381,1321,1060,1424,49500,66165,98307,49500,,IMU->,0,-78,2046,2047,
19958,1365,1274,955,1403,49500,66165,98307,49500,,IMU->,1,-80,2053,2054,
19958,1364,1237,863,1419,49500,66165,98307,49500,,IMU->,0,-78,2046,2047,
19958,1373,1225,745,1418,49500,66165,98307,49500,,IMU->,2,-80,2050,2051,
19958,1374,1189,674,1406,49500,66165,98307,49500,,IMU->,0,-80,2048,2049,
19958,1365,1170,610,1429,49500,66165,98307,49500,,IMU->,-1,-80,2050,2051,
19958,1363,1154,550,1409,49500,66165,98307,49500,,IMU->,-1,-80,2052,2053,
20324,1356,1123,487,1407,49500,66165,98307,49500,,IMU->,-1,-83,2051,2052,
19989,1369,1128,451,1415,49500,66165,98307,49500,,IMU->,-4,-82,2050,2051,
19989,1369,1117,442,1410,49500,66165,98307,49500,,IMU->,-1,-79,2047,2048,
19927,1369,1112,402,1423,49500,66165,98307,49500,,IMU->,-3,-80,2053,2054,
19958,1376,1110,404,1421,49500,66165,98307,49500,,IMU->,0,-78,2051,2052,
19958,1375,1103,390,1416,49500,66165,98307,49500,,IMU->,1,-78,2049,2050,
19958,1356,1110,383,1406,49500,66165,98307,49500,,IMU->,-2,-81,2047,2048,
19989,1358,1098,377,1404,49500,66165,98307,49500,,IMU->,0,-78,2053,2054,
19958,1356,1097,366,1404,49500,66165,98307,49500,,IMU->,0,-76,2048,2049,
19958,1354,1107,370,1418,49500,66165,98307,49500,,IMU->,4,-80,2048,2049,
20324,1375,1105,355,1415,49500,66165,98307,49500,,IMU->,1,-82,2049,2050,
19958,1364,1102,311,1413,49500,66165,98307,49500,,IMU->,0,-80,2047,2048,
19927,1372,1080,285,1416,49500,66165,98307,49500,,IMU->,0,-82,2048,2049,
19958,1383,1074,216,1419,49500,66165,98307,49500,,IMU->,-2,-81,2047,2048,
19989,1347,1035,150,1400,49500,66165,98307,49500,,IMU->,-4,-76,2049,2050,
19989,1369,1019,115,1414,49500,66165,98307,49500,,IMU->,-9,-78,2045,2046,
19958,1361,1013,51,1406,49500,66165,98307,49500,,IMU->,-5,-79,2051,2052,
19989,1354,993,32,1410,49500,66165,98307,49500,,IMU->,-5,-76,2045,2046,
19989,1377,1027,108,1431,49500,66165,98307,49500,,IMU->,-5,-78,2049,2050,
19989,1367,1109,469,1412,49500,66165,98307,49500,,IMU->,0,-79,2050,2051,
19958,1357,1270,1026,1431,49500,66165,98307,49500,,IMU->,1,-80,2048,2049,
20324,1387,1457,1548,1443,49500,66165,98307,49500,,IMU->,0,-79,2048,2049,
19958,1394,1570,1966,1445,49500,66165,98307,49500,,IMU->,-1,-83,2048,2049,
19989,1406,1652,2167,1464,49500,66165,98307,49500,,IMU->,-2,-80,2048,2049,
19927,1416,1684,2208,1462,49500,66165,98307,49500,,IMU->,-1,-79,2051,2052,
19989,1409,1640,2077,1448,49500,66165,98307,49500,,IMU->,-1,-78,2047,2048,
19989,1408,1602,1861,1447,49500,66165,98307,49500,,IMU->,-6,-76,2051,2052,
19989,1401,1530,1638,1430,49500,66165,98307,49500,,IMU->,-2,-74,2049,2050,
19989,1388,1459,1411,1437,49500,66165,98307,49500,,IMU->,0,-74,2053,2054,
19958,1395,1400,1190,1438,49500,66165,98307,49500,,IMU->,1,-80,2047,2048,
19958,1391,1324,957,1430,49500,66165,98307,49500,,IMU->,-1,-82,2051,2052,
19958,1372,1272,786,1440,49500,66165,98307,49500,,IMU->,-1,-79,2050,2051,
20324,1391,1230,689,1425,49500,66165,98307,49500,,IMU->,-2,-79,2050,2051,
19653,1366,1207,640,1420,49500,66165,98307,49500,,IMU->,-1,-81,2048,2049,
20324,1370,1226,712,1424,49500,66165,98307,49500,,IMU->,-1,-80,2051,2052,
19989,1386,1261,834,1426,49500,66165,98307,49500,,IMU->,-2,-77,2052,2053,
19989,1364,1310,960,1428,49500,66165,98307,49500,,IMU->,-1,-78,2051,2052,
19989,1382,1367,1112,1426,49500,66165,98307,49500,,IMU->,0,-82,2045,2046,
19958,1383,1385,1191,1431,49500,66165,98307,49500,,IMU->,-1,-80,2050,2051,
19958,1370,1393,1206,1418,49500,66165,98307,49500,,IMU->,-6,-74,2049,2050,
19989,1375,1391,1209,1420,49500,66165,98307,49500,,IMU->,-2,-79,2048,2049,
19958,1371,1392,1160,1417,49500,66165,98307,49500,,IMU->,-5,-80,2047,2048,
19958,1367,1364,1086,1416,49500,66165,98307,49500,,IMU->,-1,-80,2048,2049,
19989,1377,1352,992,1436,49500,66165,98307,49500,,IMU->,-1,-78,2046,2047,
19958,1378,1317,886,1423,49500,66165,98307,49500,,IMU->,0,-80,2042,2043,
19958,1371,1278,801,1428,49500,66165,98307,49500,,IMU->,0,-80,2047,2048,
20324,1375,1259,703,1418,49500,66165,98307,49500,,IMU->,-4,-81,2048,2049,
19989,1365,1222,622,1404,49500,66165,98307,49500,,IMU->,-1,-83,2046,2047,
19989,1372,1212,554,1423,49500,66165,98307,49500,,IMU->,0,-78,2052,2053,
19958,1371,1186,496,1409,49500,66165,98307,49500,,IMU->,-1,-77,2050,2051,
19927,1364,1163,458,1408,49500,66165,98307,49500,,IMU->,-1,-77,2049,2050,
19989,1367,1177,427,1421,49500,66165,98307,49500,,IMU->,-4,-79,2048,2049,
19989,1367,1166,427,1398,49500,66165,98307,49500,,IMU->,-3,-78,2046,2047,
19989,1353,1155,395,1416,49500,66165,98307,49500,,IMU->,-2,-78,2048,2049,
19989,1364,1162,400,1415,49500,66165,98307,49500,,IMU->,-4,-80,2050,2051,
19989,1368,1155,385,1404,49500,66165,98307,49500,,IMU->,0,-81,2048,2049,
19958,1349,1157,380,1411,49500,66165,98307,49500,,IMU->,3,-79,2050,2051,
19958,1361,1162,379,1408,49500,66165,98307,49500,,IMU->,-3,-79,2049,2050,
19989,1350,1152,354,1400,49500,66165,98307,49500,,IMU->,-2,-79,2047,2048,
20324,1356,1149,334,1406,49500,66165,98307,49500,,IMU->,-1,-81,2051,2052,
19958,1370,1143,338,1407,49500,66165,98307,49500,,IMU->,-2,-78,2051,2052,
19989,1351,1146,307,1402,49500,66165,98307,49500,,IMU->,-2,-75,2046,2047,
19958,1352,1164,424,1403,49500,66165,98307,49500,,IMU->,0,-78,2052,2053,
19927,1362,1254,725,1416,49500,66165,98307,49500,,IMU->,-1,-75,2051,2052,
19958,1358,1381,1150,1408,49500,66165,98307,49500,,IMU->,-2,-78,2048,2049,
19989,1363,1486,1540,1413,49500,66165,98307,49500,,IMU->,-4,-76,2048,2049,
19958,1365,1577,1785,1414,49500,66165,98307,49500,,IMU->,-2,-78,2053,2054,
19989,1365,1610,1909,1416,49500,66165,98307,49500,,IMU->,0,-77,2052,2053,
19958,1373,1621,1848,1423,49500,66165,98307,49500,,IMU->,1,-81,2031,2032,
20324,1368,1586,1719,1408,49500,66165,98307,49500,,IMU->,0,-79,2062,2063,
19958,1379,1531,1554,1416,49500,66165,98307,49500,,IMU->,6,-76,2036,2037,
19958,1364,1485,1341,1415,49500,66165,98307,49500,,IMU->,-2,-91,2037,2039,
19989,1354,1407,1114,1397,49500,66165,98307,49500,,IMU->,-7,-82,2052,2053,
19989,1370,1356,906,1419,49500,66165,98307,49500,,IMU->,-3,-74,2069,2070,
19927,1367,1306,724,1411,49500,66165,98307,49500,,IMU->,1,-76,2034,2035,
19958,1360,1237,570,1407,49500,66165,98307,49500,,IMU->,-3,-78,2051,2052,
19958,1357,1218,478,1417,49500,66165,98307,49500,,IMU->,-5,-78,2051,2052,
19989,1365,1213,475,1406,49500,66165,98307,49500,,IMU->,-5,-76,2054,2055,
19958,1353,1222,520,1410,49500,66165,98307,49500,,IMU->,-1,-75,2043,2044,
19989,1363,1259,628,1413,49500,66165,98307,49500,,IMU->,0,-79,2049,2050,
20324,1367,1290,759,1409,49500,66165,98307,49500,,IMU->,-1,-82,2050,2051,
19958,1360,1320,853,1415,49500,66165,98307,49500,,IMU->,0,-84,2044,2045,
19958,1367,1360,917,1412,49500,66165,98307,49500,,IMU->,0,-77,2044,2045,
19927,1368,1369,925,1413,49500,66165,98307,49500,,IMU->,-1,-80,2055,2056,
19989,1358,1370,915,1406,49500,66165,98307,49500,,IMU->,0,-76,2052,2053,
19958,1363,1353,869,1410,49500,66165,98307,49500,,IMU->,-1,-78,2038,2039,
19989,1364,1340,782,1417,49500,66165,98307,49500,,IMU->,-6,-76,2056,2057,
19958,1362,1314,712,1408,49500,66165,98307,49500,,IMU->,-1,-78,2050,2051,
19958,1363,1289,616,1414,49500,66165,98307,49500,,IMU->,-1,-79,2045,2046,
19989,1359,1259,541,1408,49500,66165,98307,49500,,IMU->,-1,-79,2043,2044,
20324,1363,1229,461,1408,49500,66165,98307,49500,,IMU->,-4,-77,2051,2052,
19958,1353,1217,368,1403,49500,66165,98307,49500,,IMU->,0,-81,2048,2049,
19958,1354,1192,312,1396,49500,66165,98307,49500,,IMU->,0,-78,2045,2046,
19927,1372,1187,264,1417,49500,66165,98307,49500,,IMU->,-6,-79,2050,2051,
19989,1362,1180,237,1410,49500,66165,98307,49500,,IMU->,-2,-77,2054,2055,
19989,1366,1166,235,1411,49500,66165,98307,49500,,IMU->,1,-73,2050,2051,
19958,1362,1172,213,1411,49500,66165,98307,49500,,IMU->,5,-74,2040,2041,
19958,1350,1153,198,1398,49500,66165,98307,49500,,IMU->,-5,-80,2052,2053,
19989,1350,1154,190,1409,49500,66165,98307,49500,,IMU->,-2,-79,2057,2058,
19958,1356,1160,173,1407,49500,66165,98307,49500,,IMU->,-1,-74,2043,2044,
20324,1365,1153,174,1404,49500,66165,98307,49500,,IMU->,0,-84,2046,2047,
19958,1358,1156,159,1411,49500,66165,98307,49500,,IMU->,-1,-77,2053,2054,
19989,1358,1149,144,1401,49500,66165,98307,49500,,IMU->,-2,-73,2049,2050,
20050,1357,1144,105,1404,49500,66165,98307,49500,,IMU->,-3,-76,2047,2048,
19958,1342,1136,94,1397,49500,66165,98307,49500,,IMU->,-3,-79,2050,2051,
19989,1349,1144,201,1400,49500,66165,98307,49500,,IMU->,-5,-81,2051,2052,
19989,1357,1246,531,1414,49500,66165,98307,49500,,IMU->,0,-81,2047,2048,
19989,1372,1394,1029,1396,49500,66033,98637,49500,,IMU->,-2,-78,2051,2052,
19989,1369,1377,1755,1416,49500,66033,98637,49500,,IMU->,1,-78,2049,2050,
19927,1370,1487,2089,1417,49500,66033,98637,49500,,IMU->,-2,-75,2048,2049,
19989,1369,1523,2237,1408,49500,66033,98637,49500,,IMU->,-1,-81,2046,2047,
19958,1356,1542,2242,1414,49500,66033,98637,49500,,IMU->,-3,-79,2048,2049,
19989,1361,1525,2153,1405,49500,66033,98637,49500,,IMU->,-3,-79,2053,2054,
19958,1363,1483,1991,1413,49500,66033,98637,49500,,IMU->,0,-77,2051,2052,
19958,1362,1451,1832,1415,49500,66033,98637,49500,,IMU->,-3,-77,2045,2046,
20324,1366,1384,1655,1410,49500,66033,98637,49500,,IMU->,2,-79,2053,2054,
19958,1359,1340,1455,1413,49500,66033,98637,49500,,IMU->,-3,-80,2049,2050,
19958,1358,1277,1260,1400,49500,66033,98637,49500,,IMU->,1,-80,2047,2048,
19958,1360,1232,1120,1414,49500,66033,98637,49500,,IMU->,-3,-79,2049,2050,
19958,1364,1209,1028,1411,49500,66033,98637,49500,,IMU->,-3,-76,2051,2052,
19989,1364,1194,1039,1416,49500,66033,98637,49500,,IMU->,0,-78,2047,2048,
19958,1360,1217,1086,1413,49500,66033,98637,49500,,IMU->,-6,-76,2051,2052,
19989,1354,1240,1205,1404,49500,66033,98637,49500,,IMU->,-1,-73,2048,2049,
19989,1361,1279,1324,1404,49500,66033,98637,49500,,IMU->,-1,-78,2046,2047,
19989,1346,1316,1428,1405,49500,66033,98637,49500,,IMU->,-3,-75,2048,2049,
19989,1359,1342,1512,1414,49500,66033,98637,49500,,IMU->,0,-78,2048,2049,
19958,1348,1363,1515,1421,49500,66033,98637,49500,,IMU->,-1,-82,2047,2048,
20355,1365,1355,1503,1408,49500,66033,98637,49500,,IMU->,0,-82,2049,2050,
19958,1376,1347,1455,1417,49500,66033,98637,49500,,IMU->,-3,-77,2048,2049,
19989,1365,1327,1383,1411,49500,66033,98637,49500,,IMU->,0,-80,2049,2050,
19958,1359,1280,1289,1404,49500,66033,98637,49500,,IMU->,0,-79,2047,2048,
19958,1361,1265,1202,1413,49500,66033,98637,49500,,IMU->,-1,-77,2054,2055,
19989,1360,1244,1124,1401,49500,66033,98637,49500,,IMU->,0,-75,2049,2050,
19927,1366,1209,1033,1416,49500,66033,98637,49500,,IMU->,-4,-79,2051,2052,
19958,1363,1203,974,1416,49500,66033,98637,49500,,IMU->,0,-81,2050,2051,
19958,1364,1173,913,1403,49500,66033,98637,49500,,IMU->,-1,-77,2045,2046,
19989,1364,1161,864,1413,49500,66033,98637,49500,,IMU->,-1,-79,2049,2050,
19989,1359,1149,825,1393,49500,66033,98637,49500,,IMU->,0,-77,2048,2049,
20324,1359,1136,794,1403,49500,66033,98637,49500,,IMU->,-2,-75,2047,2048,
19958,1364,1145,798,1412,49500,66033,98637,49500,,IMU->,2,-76,2051,2052,
19958,1366,1138,806,1409,49500,66033,98637,49500,,IMU->,0,-78,2050,2051,
19958,1367,1146,789,1420,49500,66033,98637,49500,,IMU->,0,-76,2047,2048,
19958,1367,1152,795,1398,49500,66033,98637,49500,,IMU->,4,-79,2049,2050,
19958,1356,1134,772,1396,49500,66033,98637,49500,,IMU->,-4,-77,2050,2051,
19989,1349,1137,760,1410,49500,66033,98637,49500,,IMU->,-1,-80,2052,2053,
19958,1375,1125,753,1404,49500,66033,98637,49500,,IMU->,0,-74,2048,2049,
19958,1348,1115,696,1406,49500,66033,98637,49500,,IMU->,0,-77,2052,2053,
20324,1359,1119,700,1408,49500,66033,98637,49500,,IMU->,-2,-77,2049,2050,
19989,1372,1135,772,1412,49500,66033,98637,49500,,IMU->,-4,-79,2050,2051,
19989,1358,1198,1023,1405,49500,66033,98637,49500,,IMU->,0,-77,2050,2051,
19958,1363,1320,1495,1412,49500,66033,98637,49500,,IMU->,-3,-80,2044,2045,
19958,1362,1455,1916,1419,49500,66033,98637,49500,,IMU->,-2,-81,2047,2048,
19989,1366,1557,2282,1412,49500,66033,98637,49500,,IMU->,-1,-78,2048,2049,
19958,1376,1627,2473,1420,49500,66033,98637,49500,,IMU->,-1,-77,2049,2050,
19927,1364,1645,2505,1429,49500,66033,98637,49500,,IMU->,-2,-79,2049,2050,
19989,1364,1619,2432,1417,49500,66033,98637,49500,,IMU->,0,-77,2051,2052,
19958,1367,1589,2286,1421,49500,66033,98637,49500,,IMU->,1,-79,2048,2049,
19958,1353,1547,2125,1409,49500,66033,98637,49500,,IMU->,0,-79,2047,2048,
20324,1372,1496,1958,1417,49500,66033,98637,49500,,IMU->,-2,-78,2048,2049,
19958,1367,1465,1783,1416,49500,66033,98637,49500,,IMU->,-3,-81,2044,2045,
19989,1377,1403,1622,1407,49500,66033,98637,49500,,IMU->,0,-82,2052,2053,
19958,1369,1373,1495,1428,49500,66033,98637,49500,,IMU->,-3,-78,2045,2046,
19989,1363,1349,1417,1400,49500,66033,98637,49500,,IMU->,1,-75,2047,2048,
19958,1357,1326,1413,1402,49500,66033,98637,49500,,IMU->,-2,-78,2049,2050,
19989,1359,1355,1465,1417,49500,66033,98637,49500,,IMU->,-2,-79,2050,2051,
19927,1369,1380,1578,1401,49500,66033,98637,49500,,IMU->,0,-76,2047,2048,
19958,1355,1410,1693,1419,49500,66033,98637,49500,,IMU->,-3,-76,2046,2047,
19989,1356,1462,1817,1418,49500,66033,98637,49500,,IMU->,-1,-80,2049,2050,
19989,1377,1478,1863,1415,49500,66033,98637,49500,,IMU->,-4,-78,2047,2048,
19989,1357,1484,1872,1417,49500,66033,98637,49500,,IMU->,-3,-78,2047,2048,
20355,1372,1476,1861,1410,49500,66033,98637,49500,,IMU->,0,-77,2051,2052,
19958,1364,1465,1798,1414,49500,66033,98637,49500,,IMU->,0,-79,2050,2051,
19958,1368,1453,1748,1414,49500,66033,98637,49500,,IMU->,0,-80,2051,2052,
19958,1374,1427,1666,1416,49500,66033,98637,49500,,IMU->,0,-79,2047,2048,
19958,1361,1403,1560,1414,49500,66033,98637,49500,,IMU->,-3,-81,2049,2050,
19989,1365,1372,1486,1410,49500,66033,98637,49500,,IMU->,-2,-77,2053,2054,
19989,1366,1354,1416,1407,49500,66033,98637,49500,,IMU->,-1,-76,2048,2049,
19989,1347,1332,1349,1396,49500,66033,98637,49500,,IMU->,-1,-79,2052,2053,
19927,1366,1323,1307,1414,49500,66033,98637,49500,,IMU->,-2,-78,2047,2048,
19958,1359,1309,1253,1409,49500,66033,98637,49500,,IMU->,-3,-76,2051,2052,
20324,1361,1284,1241,1414,49500,66033,98637,49500,,IMU->,-3,-81,2052,2053,
19989,1370,1301,1229,1418,49500,66033,98637,49500,,IMU->,0,-72,2049,2050,
19958,1359,1276,1216,1399,49500,66033,98637,49500,,IMU->,-4,-79,2047,2048,
19958,1372,1284,1223,1415,49500,66033,98637,49500,,IMU->,-4,-80,2047,2048,
19989,1376,1307,1215,1416,49500,66033,98637,49500,,IMU->,-3,-78,2050,2051,
19958,1355,1283,1213,1391,49500,66033,98637,49500,,IMU->,-1,-78,2047,2048,
19989,1366,1293,1199,1420,49500,66033,98637,49500,,IMU->,0,-80,2049,2050,
19958,1366,1301,1188,1402,49500,66033,98637,49500,,IMU->,0,-83,2050,2051,
19927,1348,1275,1167,1403,49500,66033,98637,49500,,IMU->,-1,-78,2050,2051,
19989,1358,1286,1144,1417,49500,66033,98637,49500,,IMU->,0,-81,2054,2055,
19958,1363,1270,1113,1403,49500,66033,98637,49500,,IMU->,-4,-79,2047,2048,
20324,1360,1248,1054,1416,49500,66033,98637,49500,,IMU->,-2,-82,2053,2054,
19958,1366,1253,1024,1410,49500,66033,98637,49500,,IMU->,0,-81,2050,2051,
19958,1361,1242,1010,1410,49500,66033,98637,49500,,IMU->,-3,-76,2050,2051,
19989,1353,1260,1105,1414,49500,66033,98637,49500,,IMU->,-3,-74,2047,2048,
19989,1363,1345,1451,1409,49500,66033,98637,49500,,IMU->,-2,-82,2051,2052,
19989,1377,1483,1932,1412,49500,66033,98637,49500,,IMU->,-3,-78,2047,2048,
20019,1369,1616,2404,1416,49500,66033,98637,49500,,IMU->,-2,-82,2049,2050,
19958,1378,1709,2745,1413,49500,66033,98637,49500,,IMU->,0,-78,2050,2051,
19958,1372,1773,2893,1430,49500,66033,98637,49500,,IMU->,-5,-78,2049,2050,
19989,1379,1780,2916,1425,49500,66033,98637,49500,,IMU->,0,-80,2050,2051,
19927,1378,1758,2799,1427,49500,66033,98637,49500,,IMU->,0,-76,2047,2048,
19958,1355,1713,2614,1414,49500,66033,98637,49500,,IMU->,0,-80,2050,2051,
20324,1384,1662,2448,1424,49500,66033,98637,49500,,IMU->,0,-79,2049,2050,
19958,1380,1623,2239,1415,49500,66033,98637,49500,,IMU->,-2,-75,2044,2045,
19958,1371,1551,2065,1414,49500,66033,98637,49500,,IMU->,-4,-74,2048,2049,
19958,1377,1511,1889,1430,49500,66033,98637,49500,,IMU->,-3,-80,2050,2051,
19989,1363,1473,1734,1407,49500,66033,98637,49500,,IMU->,-3,-81,2051,2052,
19958,1364,1436,1669,1409,49500,66033,98637,49500,,IMU->,0,-78,2049,2050,
19958,1369,1458,1699,1424,49500,66033,98637,49500,,IMU->,0,-76,2051,2052,
19927,1364,1472,1782,1404,49500,66033,98637,49500,,IMU->,-3,-76,2048,2049,
19989,1374,1501,1898,1420,49500,66033,98637,49500,,IMU->,1,-76,2052,2053,
20324,1370,1553,2011,1415,49500,66033,98637,49500,,IMU->,0,-77,2050,2051,
19958,1372,1562,2097,1413,49500,66033,98637,49500,,IMU->,0,-77,2050,2051,
19958,1368,1587,2129,1424,49500,66033,98637,49500,,IMU->,2,-80,2050,2051,
19958,1378,1588,2135,1414,49500,66033,98637,49500,,IMU->,-3,-81,2047,2048,
19958,1372,1579,2075,1426,49500,66033,98637,49500,,IMU->,0,-78,2046,2047,
19958,1375,1573,2020,1414,49500,66033,98637,49500,,IMU->,-1,-79,2052,2053,
19989,1372,1534,1933,1405,49500,66033,98637,49500,,IMU->,-2,-77,2050,2051,
19927,1363,1517,1831,1425,49500,66033,98637,49500,,IMU->,-3,-80,2049,2050,
19958,1352,1485,1750,1411,49500,66033,98637,49500,,IMU->,1,-78,2051,2052,
20324,1366,1446,1654,1411,49500,66033,98637,49500,,IMU->,0,-77,2050,2051,
19958,1366,1448,1600,1420,49500,66033,98637,49500,,IMU->,-1,-78,2046,2047,
19958,1382,1436,1544,1418,49500,66033,98637,49500,,IMU->,-1,-78,2050,2051,
19989,1365,1412,1476,1419,49500,66033,98637,49500,,IMU->,-2,-78,2051,2052,
19989,1376,1399,1448,1421,49500,66033,98637,49500,,IMU->,-1,-80,2048,2049,
19989,1379,1393,1413,1415,49500,66033,98637,49500,,IMU->,0,-79,2050,2051,
19958,1353,1390,1388,1402,49500,66033,98637,49500,,IMU->,0,-78,2049,2050,
19958,1366,1381,1399,1413,49500,66033,98637,49500,,IMU->,-2,-77,2051,2052,
19958,1371,1394,1380,1425,49500,66033,98637,49500,,IMU->,-3,-82,2049,2050,
19958,1367,1389,1376,1422,49500,66033,98637,49500,,IMU->,-4,-83,2051,2052,
20324,1378,1390,1355,1422,49500,66033,98637,49500,,IMU->,-2,-76,2052,2053,
19958,1367,1390,1340,1416,49500,66033,98637,49500,,IMU->,0,-76,2052,2053,
19958,1372,1367,1317,1415,49500,66033,98637,49500,,IMU->,-1,-77,2052,2053,
19989,1368,1363,1257,1421,49500,66033,98637,49500,,IMU->,-5,-79,2048,2049,
19989,1364,1340,1222,1402,49500,66033,98637,49500,,IMU->,0,-77,2045,2046,
19958,1371,1324,1173,1426,49500,66033,98637,49500,,IMU->,-4,-79,2050,2051,
19958,1379,1319,1081,1419,49500,66033,98637,49500,,IMU->,0,-74,2047,2048,
19958,1380,1275,1002,1412,49500,66033,98637,49500,,IMU->,0,-79,2046,2047,
19927,1363,1261,930,1423,49500,66033,98637,49500,,IMU->,-2,-76,2050,2051,
19989,1374,1231,860,1409,49500,66033,98637,49500,,IMU->,-2,-77,2048,2049,
19989,1371,1214,817,1417,49500,66033,98637,49500,,IMU->,-4,-78,2052,2053,
19989,1369,1237,884,1419,49500,66033,98637,49500,,IMU->,1,-79,2050,2051,
20324,1366,1291,1133,1420,49500,66033,98637,49500,,IMU->,0,-80,2045,2046,
19958,1374,1419,1560,1427,49500,66033,98637,49500,,IMU->,-1,-77,2051,2052,
19989,1381,1555,2036,1424,49500,66033,98637,49500,,IMU->,-4,-76,2048,2049,
19958,1378,1651,2410,1429,49500,66033,98637,49500,,IMU->,-1,-80,2045,2046,
19989,1371,1725,2601,1421,49500,66033,98637,49500,,IMU->,-3,-79,2047,2048,
19958,1386,1743,2657,1418,49500,66033,98637,49500,,IMU->,-1,-79,2054,2055,
19927,1388,1736,2564,1435,49500,66033,98637,49500,,IMU->,0,-80,2050,2051,
19927,1373,1691,2409,1428,49500,66033,98637,49500,,IMU->,1,-77,2050,2051,
20324,1382,1645,2225,1429,49500,66033,98637,49500,,IMU->,-1,-75,2052,2053,
19989,1372,1598,2018,1422,49500,66033,98637,49500,,IMU->,-1,-78,2051,2052,
19958,1372,1535,1825,1413,49500,66033,98637,49500,,IMU->,1,-78,2052,2053,
19958,1371,1474,1608,1426,49500,66033,98637,49500,,IMU->,-1,-80,2047,2048,
19989,1376,1427,1457,1421,49500,66033,98637,49500,,IMU->,-5,-80,2050,2051,
19958,1382,1400,1386,1422,49500,66033,98637,49500,,IMU->,-1,-79,2046,2047,
19989,1370,1413,1399,1424,49500,65769,98208,49500,,IMU->,-1,-78,2052,2053,
19958,1383,1135,1033,1421,49500,65769,98208,49500,,IMU->,-1,-81,2053,2054,
19989,1374,1175,1138,1420,49500,65769,98208,49500,,IMU->,-6,-81,2048,2049,
19958,1358,1197,1281,1410,49500,65769,98208,49500,,IMU->,-2,-80,2047,2048,
19927,1371,1233,1381,1417,49500,65769,98208,49500,,IMU->,-1,-79,2052,2053,
20324,1371,1265,1422,1415,49500,65769,98208,49500,,IMU->,-1,-78,2047,2048,
19958,1373,1261,1450,1420,49500,65769,98208,49500,,IMU->,-1,-79,2048,2049,
19989,1380,1276,1402,1437,49500,65769,98208,49500,,IMU->,-3,-81,2052,2053,
19958,1376,1248,1336,1419,49500,65769,98208,49500,,IMU->,-4,-78,2049,2050,
19989,1374,1207,1241,1423,49500,65769,98208,49500,,IMU->,-2,-79,2053,2054,
19958,1361,1200,1142,1415,49500,65769,98208,49500,,IMU->,-3,-79,2047,2048,
19958,1369,1170,1072,1413,49500,65769,98208,49500,,IMU->,-2,-79,2049,2050,
19989,1381,1144,977,1413,49500,65769,98208,49500,,IMU->,2,-77,2047,2048,
19958,1367,1122,914,1418,49500,65769,98208,49500,,IMU->,-5,-77,2047,2048,
19989,1374,1110,868,1431,49500,65769,98208,49500,,IMU->,-1,-80,2049,2050,
20294,1366,1107,802,1413,49500,65769,98208,49500,,IMU->,0,-82,2047,2048,
19958,1363,1077,767,1407,49500,65769,98208,49500,,IMU->,-2,-81,2050,2051,
19958,1371,1072,745,1427,49500,65769,98208,49500,,IMU->,-1,-78,2050,2051,
19989,1371,1081,755,1411,49500,65769,98208,49500,,IMU->,-3,-76,2047,2048,
19989,1368,1083,762,1422,49500,65769,98208,49500,,IMU->,-3,-79,2048,2049,
19989,1376,1098,770,1420,49500,65769,98208,49500,,IMU->,0,-78,2049,2050,
19958,1374,1088,771,1413,49500,65769,98208,49500,,IMU->,-1,-81,2047,2048,
19958,1372,1095,743,1420,49500,65769,98208,49500,,IMU->,0,-75,2047,2048,
19958,1369,1087,749,1414,49500,65769,98208,49500,,IMU->,0,-79,2051,2052,
19958,1369,1081,733,1422,49500,65769,98208,49500,,IMU->,0,-79,2047,2048,
20294,1357,1080,697,1413,49500,65769,98208,49500,,IMU->,-1,-80,2053,2054,
19989,1370,1070,685,1413,49500,65769,98208,49500,,IMU->,-4,-81,2050,2051,
19989,1370,1069,625,1427,49500,65769,98208,49500,,IMU->,-1,-76,2052,2053,
19958,1369,1054,599,1417,49500,65769,98208,49500,,IMU->,0,-77,2050,2051,
19958,1372,1044,592,1413,49500,65769,98208,49500,,IMU->,-1,-79,2049,2050,
19989,1366,1072,658,1416,49500,65769,98208,49500,,IMU->,0,-81,2051,2052,
19958,1379,1128,951,1416,49500,65769,98208,49500,,IMU->,0,-79,2054,2055,
19958,1374,1250,1348,1428,49500,65769,98208,49500,,IMU->,0,-75,2047,2048,
19958,1374,1362,1796,1421,49500,65769,98208,49500,,IMU->,-5,-80,2047,2048,
19958,1383,1457,2107,1433,49500,65769,98208,49500,,IMU->,-1,-78,2051,2052,
20294,1365,1504,2227,1419,49500,65769,98208,49500,,IMU->,0,-75,2050,2051,
19958,1376,1500,2217,1417,49500,65769,98208,49500,,IMU->,-1,-80,2050,2051,
19989,1383,1489,2104,1429,49500,65769,98208,49500,,IMU->,-4,-77,2055,2056,
19958,1378,1441,1932,1420,49500,65769,98208,49500,,IMU->,-1,-76,2049,2050,
19989,1380,1385,1749,1438,49500,65769,98208,49500,,IMU->,-2,-80,2049,2050,
19989,1391,1357,1547,1433,49500,65769,98208,49500,,IMU->,0,-79,2045,2046,
19958,1369,1280,1344,1413,49500,65769,98208,49500,,IMU->,-4,-77,2051,2052,
19989,1373,1222,1154,1429,49500,65769,98208,49500,,IMU->,0,-76,2048,2049,
19958,1377,1191,1016,1412,49500,65769,98208,49500,,IMU->,-3,-75,2054,2055,
19927,1359,1157,980,1412,49500,65769,98208,49500,,IMU->,0,-80,2051,2052,
20294,1366,1189,1025,1420,49500,65769,98208,49500,,IMU->,1,-78,2049,2050,
19958,1377,1211,1130,1412,49500,65769,98208,49500,,IMU->,1,-80,2051,2052,
19958,1370,1243,1244,1430,49500,65769,98208,49500,,IMU->,-2,-78,2050,2051,
19958,1374,1287,1356,1423,49500,65769,98208,49500,,IMU->,-2,-79,2048,2049,
19958,1381,1301,1438,1423,49500,65769,98208,49500,,IMU->,0,-79,2047,2048,
19958,1365,1320,1464,1420,49500,65769,98208,49500,,IMU->,0,-77,2049,2050,
19958,1379,1320,1458,1416,49500,65769,98208,49500,,IMU->,0,-80,2047,2048,
19958,1367,1308,1386,1422,49500,65769,98208,49500,,IMU->,2,-77,2048,2049,
20294,1363,1297,1337,1428,49500,65769,98208,49500,,IMU->,-1,-75,2042,2043,
19958,1380,1274,1256,1421,49500,65769,98208,49500,,IMU->,-1,-81,2053,2054,
19989,1360,1244,1159,1418,49500,65769,98208,49500,,IMU->,0,-81,2051,2052,
19958,1378,1220,1085,1420,49500,65769,98208,49500,,IMU->,-1,-79,2049,2050,
19989,1379,1205,992,1424,49500,65769,98208,49500,,IMU->,-1,-76,2047,2048,
19989,1361,1183,946,1408,49500,65769,98208,49500,,IMU->,0,-79,2048,2049,
19958,1375,1172,921,1426,49500,65769,98208,49500,,IMU->,-1,-80,2047,2048,
19989,1369,1175,887,1408,49500,65769,98208,49500,,IMU->,0,-77,2050,2051,
19958,1362,1154,861,1412,49500,65769,98208,49500,,IMU->,-2,-81,2047,2048,
19989,1373,1164,847,1426,49500,65769,98208,49500,,IMU->,-2,-81,2049,2050,
19958,1371,1152,813,1404,49500,65769,98208,49500,,IMU->,-1,-82,2050,2051,
19989,1364,1145,818,1421,49500,65769,98208,49500,,IMU->,0,-79,2047,2048,
19958,1362,1170,834,1423,49500,65769,98208,49500,,IMU->,-3,-81,2049,2050,
20355,1369,1158,830,1407,49500,65769,98208,49500,,IMU->,0,-78,2047,2048,
19958,1365,1159,817,1425,49500,65769,98208,49500,,IMU->,-5,-83,2051,2052,
19989,1367,1155,815,1412,49500,65769,98208,49500,,IMU->,0,-76,2051,2052,
19958,1366,1140,809,1421,49500,65769,98208,49500,,IMU->,0,-76,2045,2046,
19958,1374,1164,798,1423,49500,65769,98208,49500,,IMU->,-1,-76,2048,2049,
19989,1374,1148,784,1404,49500,65769,98208,49500,,IMU->,-1,-78,2050,2051,
19989,1368,1130,730,1426,49500,65769,98208,49500,,IMU->,0,-79,2049,2050,
19958,1378,1137,707,1426,49500,65769,98208,49500,,IMU->,-3,-79,2049,2050,
19958,1368,1111,662,1408,49500,65769,98208,49500,,IMU->,1,-79,2045,2046,
19958,1352,1100,601,1416,49500,65769,98208,49500,,IMU->,-2,-77,2050,2051,
19989,1370,1091,545,1411,49500,65769,98208,49500,,IMU->,-1,-78,2050,2051,
19989,1359,1062,468,1412,49500,65769,98208,49500,,IMU->,-1,-80,2044,2045,
19989,1370,1063,459,1422,49500,65769,98208,49500,,IMU->,-5,-81,2049,2050,
19989,1380,1071,518,1423,49500,65769,98208,49500,,IMU->,0,-82,2054,2055,
20294,1359,1130,773,1414,49500,65769,98208,49500,,IMU->,-6,-80,2050,2051,
19989,1370,1267,1315,1423,49500,65769,98208,49500,,IMU->,0,-74,2047,2048,
19958,1384,1438,1899,1436,49500,65769,98208,49500,,IMU->,-1,-79,2049,2050,
19989,1376,1561,2329,1426,49500,65769,98208,49500,,IMU->,-6,-80,2055,2056,
19958,1383,1631,2579,1435,49500,65769,98208,49500,,IMU->,0,-76,2048,2049,
19958,1382,1676,2630,1428,49500,65769,98208,49500,,IMU->,0,-81,2045,2046,
19958,1373,1651,2567,1424,49500,65769,98208,49500,,IMU->,-4,-79,2051,2052,
19958,1381,1613,2406,1433,49500,65769,98208,49500,,IMU->,-3,-75,2048,2049,
19989,1363,1557,2191,1415,49500,65769,98208,49500,,IMU->,1,-80,2052,2053,
19958,1368,1508,2028,1439,49500,65769,98208,49500,,IMU->,0,-75,2047,2048,
20294,1382,1477,1850,1423,49500,65769,98208,49500,,IMU->,-3,-82,2052,2053,
19958,1368,1428,1674,1416,49500,65769,98208,49500,,IMU->,-2,-75,2049,2050,
19958,1382,1380,1526,1432,49500,65769,98208,49500,,IMU->,-3,-78,2053,2054,
19989,1376,1357,1430,1420,49500,65769,98208,49500,,IMU->,-2,-76,2052,2053,
19958,1365,1333,1417,1412,49500,65769,98208,49500,,IMU->,0,-77,2052,2053,
19958,1368,1368,1473,1431,49500,65769,98208,49500,,IMU->,-1,-78,2053,2054,
19989,1380,1380,1548,1417,49500,65769,98208,49500,,IMU->,-4,-77,2049,2050,
19958,1375,1405,1633,1426,49500,65769,98208,49500,,IMU->,-5,-79,2048,2049,
19989,1371,1442,1746,1430,49500,65769,98208,49500,,IMU->,0,-77,2048,2049,
19958,1369,1453,1816,1414,49500,65769,98208,49500,,IMU->,-2,-79,2053,2054,
20324,1364,1461,1823,1419,49500,65769,98208,49500,,IMU->,-3,-80,2049,2050,
19989,1369,1461,1808,1418,49500,65769,98208,49500,,IMU->,0,-83,2051,2052,
19958,1376,1448,1739,1423,49500,65769,98208,49500,,IMU->,0,-79,2048,2049,
19958,1382,1432,1654,1434,49500,65769,98208,49500,,IMU->,-4,-77,2048,2049,
19989,1391,1401,1572,1433,49500,65769,98208,49500,,IMU->,-2,-79,2051,2052,
19958,1371,1380,1464,1436,49500,65769,98208,49500,,IMU->,1,-81,2048,2049,
19958,1370,1359,1384,1421,49500,65769,98208,49500,,IMU->,0,-75,2045,2046,
19958,1378,1328,1285,1420,49500,65769,98208,49500,,IMU->,0,-81,2048,2049,
19958,1362,1302,1204,1418,49500,65769,98208,49500,,IMU->,-3,-79,2052,2053,
19989,1380,1286,1170,1425,49500,65769,98208,49500,,IMU->,0,-78,2048,2049,
20324,1382,1284,1121,1417,49500,65769,98208,49500,,IMU->,1,-78,2050,2051,
19958,1372,1273,1120,1419,49500,65769,98208,49500,,IMU->,3,-73,2047,2048,
19958,1380,1280,1093,1435,49500,65769,98208,49500,,IMU->,-2,-84,2048,2049,
19989,1366,1274,1059,1414,49500,65769,98208,49500,,IMU->,-1,-80,2048,2049,
19958,1371,1250,1076,1421,49500,65769,98208,49500,,IMU->,-1,-77,2049,2050,
19958,1376,1278,1079,1427,49500,65769,98208,49500,,IMU->,0,-79,2046,2047,
19958,1367,1268,1079,1409,49500,65769,98208,49500,,IMU->,-4,-80,2052,2053,
19989,1375,1269,1079,1428,49500,65769,98208,49500,,IMU->,-1,-78,2051,2052,
19989,1377,1273,1056,1416,49500,65769,98208,49500,,IMU->,-2,-76,2050,2051,
19989,1365,1247,1032,1405,49500,65769,98208,49500,,IMU->,0,-79,2050,2051,
19958,1360,1252,1014,1429,49500,65769,98208,49500,,IMU->,-4,-78,2050,2051,
19989,1377,1246,984,1411,49500,65769,98208,49500,,IMU->,-3,-80,2052,2053,
19989,1371,1236,954,1422,49500,65769,98208,49500,,IMU->,4,-78,2049,2050,
20324,1376,1237,901,1429,49500,65769,98208,49500,,IMU->,-4,-81,2051,2052,
19989,1385,1217,878,1419,49500,65769,98208,49500,,IMU->,-3,-79,2050,2051,
19958,1366,1209,830,1421,49500,65769,98208,49500,,IMU->,-1,-76,2049,2050,
19989,1367,1192,799,1411,49500,65769,98208,49500,,IMU->,2,-74,2042,2043,
19958,1375,1183,767,1418,49500,65769,98208,49500,,IMU->,-4,-77,2055,2056,
19989,1380,1175,727,1416,49500,65769,98208,49500,,IMU->,-1,-78,2051,2052,
19958,1377,1166,692,1416,49500,65769,98208,49500,,IMU->,-1,-74,2051,2052,
19989,1369,1155,642,1431,49500,65769,98208,49500,,IMU->,0,-75,2046,2047,
19958,1373,1146,623,1418,49500,65769,98208,49500,,IMU->,-3,-79,2053,2054,
19958,1374,1120,539,1416,49500,65769,98208,49500,,IMU->,-5,-77,2051,2052,
19989,1346,1101,490,1414,49500,65769,98208,49500,,IMU->,0,-78,2046,2047,
19958,1365,1083,488,1417,49500,65769,98208,49500,,IMU->,-4,-79,2052,2053,
19989,1372,1108,489,1420,49500,65769,98208,49500,,IMU->,1,-76,2044,2045,
20324,1362,1137,658,1417,49500,65769,98208,49500,,IMU->,-2,-77,2052,2053,
19989,1390,1241,1089,1436,49500,65769,98208,49500,,IMU->,-2,-78,2050,2051,
19989,1384,1408,1648,1428,49500,65769,98208,49500,,IMU->,-2,-83,2048,2049,
19989,1378,1523,2176,1421,49500,65769,98208,49500,,IMU->,0,-78,2050,2051,
19958,1375,1636,2491,1432,49500,65769,98208,49500,,IMU->,-3,-79,2053,2054,
19989,1379,1676,2620,1426,49500,65769,98208,49500,,IMU->,-5,-78,2051,2052,
19958,1376,1676,2580,1435,49500,65769,98208,49500,,IMU->,-1,-76,2053,2054,
19989,1388,1659,2454,1433,49500,65769,98208,49500,,IMU->,-2,-76,2050,2051,
19958,1384,1602,2257,1434,49500,65769,98208,49500,,IMU->,0,-79,2047,2048,
19958,1379,1559,2052,1433,49500,65769,98208,49500,,IMU->,1,-80,2049,2050,
19958,1373,1506,1882,1420,49500,65769,98208,49500,,IMU->,-2,-76,2048,2049,
19958,1371,1463,1722,1428,49500,65769,98208,49500,,IMU->,0,-83,2052,2053,
20324,1379,1426,1569,1424,49500,65769,98208,49500,,IMU->,0,-81,2051,2052,
19958,1376,1376,1465,1419,49500,65769,98208,49500,,IMU->,1,-80,2050,2051,
19989,1376,1370,1389,1425,49500,65637,98109,49500,,IMU->,-1,-79,2051,2052,
19958,1385,1236,1413,1419,49500,65637,98109,49500,,IMU->,-3,-79,2046,2047,
19989,1373,1234,1446,1420,49500,65637,98109,49500,,IMU->,-2,-79,2050,2051,
19958,1372,1264,1529,1423,49500,65637,98109,49500,,IMU->,-2,-79,2049,2050,
19958,1384,1281,1640,1422,49500,65637,98109,49500,,IMU->,-4,-77,2047,2048,
19989,1374,1311,1718,1434,49500,65637,98109,49500,,IMU->,-1,-75,2045,2046,
19958,1374,1330,1768,1424,49500,65637,98109,49500,,IMU->,0,-77,2047,2048,
19958,1380,1332,1752,1430,49500,65637,98109,49500,,IMU->,1,-80,2054,2055,
20324,1376,1325,1701,1427,49500,65637,98109,49500,,IMU->,-1,-78,2052,2053,
19989,1386,1293,1623,1423,49500,65637,98109,49500,,IMU->,1,-77,2049,2050,
19958,1373,1270,1523,1425,49500,65637,98109,49500,,IMU->,-2,-81,2050,2051,
19989,1374,1247,1434,1418,49500,65637,98109,49500,,IMU->,0,-78,2044,2045,
19958,1381,1221,1342,1426,49500,65637,98109,49500,,IMU->,-1,-78,2050,2051,
19989,1376,1204,1248,1430,49500,65637,98109,49500,,IMU->,1,-78,2050,2051,
19958,1381,1174,1186,1420,49500,65637,98109,49500,,IMU->,0,-76,2050,2051,
19958,1370,1157,1104,1424,49500,65637,98109,49500,,IMU->,-1,-77,2046,2047,
19989,1370,1147,1060,1417,49500,65637,98109,49500,,IMU->,0,-77,2048,2049,
19958,1378,1132,1034,1420,49500,65637,98109,49500,,IMU->,-6,-77,2051,2052,
19958,1370,1125,1000,1426,49500,65637,98109,49500,,IMU->,-4,-77,2048,2049,
19989,1373,1119,994,1430,49500,65637,98109,49500,,IMU->,-6,-80,2049,2050,
20324,1370,1125,975,1423,49500,65637,98109,49500,,IMU->,-1,-80,2050,2051,
19958,1369,1116,988,1418,49500,65637,98109,49500,,IMU->,-2,-73,2051,2052,
19989,1382,1118,968,1424,49500,65637,98109,49500,,IMU->,-1,-78,2053,2054,
19958,1372,1112,967,1420,49500,65637,98109,49500,,IMU->,-2,-80,2048,2049,
19989,1372,1105,966,1417,49500,65637,98109,49500,,IMU->,-2,-79,2046,2047,
19989,1374,1120,965,1428,49500,65637,98109,49500,,IMU->,-1,-78,2047,2048,
19989,1373,1122,945,1416,49500,65637,98109,49500,,IMU->,3,-81,2053,2054,
19958,1378,1107,915,1423,49500,65637,98109,49500,,IMU->,-2,-77,2051,2052,
19958,1371,1104,877,1425,49500,65637,98109,49500,,IMU->,2,-80,2047,2048,
19958,1378,1084,855,1420,49500,65637,98109,49500,,IMU->,1,-78,2055,2056,
19958,1376,1077,805,1437,49500,65637,98109,49500,,IMU->,-4,-78,2046,2047,
19958,1360,1065,767,1414,49500,65637,98109,49500,,IMU->,-2,-80,2050,2051,
20294,1380,1057,738,1422,49500,65637,98109,49500,,IMU->,-4,-77,2051,2052,
19958,1376,1056,691,1428,49500,65637,98109,49500,,IMU->,-2,-80,2047,2048,
19989,1375,1031,650,1414,49500,65637,98109,49500,,IMU->,0,-76,2046,2047,
19958,1358,1026,610,1428,49500,65637,98109,49500,,IMU->,-3,-79,2056,2057,
19989,1381,1021,578,1418,49500,65637,98109,49500,,IMU->,-3,-77,2049,2050,
19958,1384,997,532,1418,49500,65637,98109,49500,,IMU->,-4,-78,2048,2049,
19958,1377,991,490,1433,49500,65637,98109,49500,,IMU->,-3,-78,2048,2049,
19989,1385,980,481,1413,49500,65637,98109,49500,,IMU->,-4,-80,2050,2051,
19958,1370,971,420,1418,49500,65637,98109,49500,,IMU->,-2,-79,2050,2051,
19989,1351,971,424,1417,49500,65637,98109,49500,,IMU->,-1,-77,2049,2050,
20324,1384,992,551,1422,49500,65637,98109,49500,,IMU->,-2,-82,2048,2049,
19989,1377,1091,917,1425,49500,65637,98109,49500,,IMU->,1,-78,2049,2050,
19958,1384,1223,1443,1428,49500,65637,98109,49500,,IMU->,0,-77,2049,2050,
19958,1388,1352,1917,1436,49500,65637,98109,49500,,IMU->,-2,-78,2049,2050,
19958,1379,1443,2225,1427,49500,65637,98109,49500,,IMU->,-3,-74,2048,2049,
19989,1385,1492,2332,1437,49500,65637,98109,49500,,IMU->,-2,-76,2049,2050,
19989,1376,1498,2291,1429,49500,65637,98109,49500,,IMU->,-1,-79,2047,2048,
19989,1380,1452,2151,1431,49500,65637,98109,49500,,IMU->,-2,-77,2051,2052,
19989,1397,1417,1952,1435,49500,65637,98109,49500,,IMU->,-3,-79,2049,2050,
19989,1387,1354,1737,1420,49500,65637,98109,49500,,IMU->,-1,-74,2052,2053,
19958,1385,1302,1547,1431,49500,65637,98109,49500,,IMU->,-2,-78,2048,2049,
19989,1380,1257,1333,1426,49500,65637,98109,49500,,IMU->,-1,-79,2051,2052,
19989,1366,1186,1144,1415,49500,65637,98109,49500,,IMU->,2,-82,2051,2052,
19958,1367,1162,1015,1434,49500,65637,98109,49500,,IMU->,1,-79,2045,2046,
20324,1380,1141,981,1415,49500,65637,98109,49500,,IMU->,-3,-78,2049,2050,
19989,1374,1131,1011,1419,49500,65637,98109,49500,,IMU->,-3,-79,2055,2056,
19958,1388,1175,1112,1434,49500,65637,98109,49500,,IMU->,2,-80,2043,2044,
19958,1389,1209,1252,1420,49500,65637,98109,49500,,IMU->,-2,-77,2053,2054,
19989,1374,1240,1348,1429,49500,65637,98109,49500,,IMU->,-4,-78,2052,2053,
19958,1379,1277,1460,1426,49500,65637,98109,49500,,IMU->,2,-78,2047,2048,
19958,1388,1285,1498,1427,49500,65637,98109,49500,,IMU->,-3,-80,2048,2049,
19958,1379,1299,1498,1432,49500,65637,98109,49500,,IMU->,1,-77,2047,2048,
19958,1382,1284,1466,1422,49500,65637,98109,49500,,IMU->,-1,-74,2051,2052,
19989,1373,1261,1372,1422,49500,65637,98109,49500,,IMU->,1,-78,2049,2050,
19958,1366,1249,1285,1428,49500,65637,98109,49500,,IMU->,-1,-81,2047,2048,
19989,1392,1213,1193,1426,49500,65637,98109,49500,,IMU->,1,-72,2050,2051,
20324,1371,1190,1085,1425,49500,65637,98109,49500,,IMU->,-4,-75,2050,2051,
19989,1387,1165,1017,1418,49500,65637,98109,49500,,IMU->,0,-78,2049,2050,
19958,1387,1147,936,1432,49500,65637,98109,49500,,IMU->,0,-75,2047,2048,
19958,1372,1127,870,1421,49500,65637,98109,49500,,IMU->,-4,-75,2051,2052,
19958,1386,1106,819,1426,49500,65637,98109,49500,,IMU->,-3,-76,2049,2050,
19989,1373,1099,769,1417,49500,65637,98109,49500,,IMU->,0,-78,2048,2049,
19958,1366,1074,768,1416,49500,65637,98109,49500,,IMU->,1,-76,2052,2053,
19958,1379,1085,759,1432,49500,65637,98109,49500,,IMU->,-1,-77,2043,2044,
19989,1370,1090,751,1416,49500,65637,98109,49500,,IMU->,-2,-79,2053,2054,
19958,1376,1080,751,1433,49500,65637,98109,49500,,IMU->,-2,-79,2052,2053,
19989,1393,1108,764,1443,49500,65637,98109,49500,,IMU->,0,-81,2050,2051,
20324,1375,1086,764,1411,49500,65637,98109,49500,,IMU->,-1,-76,2051,2052,
19989,1370,1094,752,1427,49500,65637,98109,49500,,IMU->,2,-75,2048,2049,
19958,1376,1101,759,1415,49500,65637,98109,49500,,IMU->,-1,-81,2050,2051,
19989,1370,1079,735,1417,49500,65637,98109,49500,,IMU->,-4,-75,2048,2049,
19958,1376,1094,718,1436,49500,65637,98109,49500,,IMU->,-1,-76,2046,2047,
19958,1387,1079,678,1417,49500,65637,98109,49500,,IMU->,0,-81,2050,2051,
19958,1374,1058,621,1426,49500,65637,98109,49500,,IMU->,-1,-78,2048,2049,
19958,1372,1053,586,1420,49500,65637,98109,49500,,IMU->,3,-74,2045,2046,
19958,1373,1025,508,1412,49500,65637,98109,49500,,IMU->,0,-78,2048,2049,
19958,1353,1018,471,1427,49500,65637,98109,49500,,IMU->,0,-78,2050,2051,
20324,1377,1010,466,1421,49500,65637,98109,49500,,IMU->,-2,-75,2049,2050,
19958,1374,1040,588,1428,49500,65637,98109,49500,,IMU->,-2,-78,2044,2045,
19989,1385,1134,959,1429,49500,65637,98109,49500,,IMU->,-1,-79,2050,2051,
19989,1387,1262,1452,1430,49500,65637,98109,49500,,IMU->,-1,-77,2046,2047,
19989,1374,1386,1905,1430,49500,65637,98109,49500,,IMU->,-4,-75,2051,2052,
19958,1390,1473,2218,1437,49500,65637,98109,49500,,IMU->,-1,-80,2049,2050,
19958,1391,1513,2314,1430,49500,65637,98109,49500,,IMU->,0,-77,2050,2051,
19958,1373,1517,2268,1429,49500,65637,98109,49500,,IMU->,-3,-75,2052,2053,
19989,1399,1495,2152,1443,49500,65637,98109,49500,,IMU->,0,-76,2049,2050,
19958,1393,1448,1946,1439,49500,65637,98109,49500,,IMU->,-1,-79,2048,2049,
19989,1369,1379,1775,1428,49500,65637,98109,49500,,IMU->,0,-73,2047,2048,
19958,1375,1349,1597,1443,49500,65637,98109,49500,,IMU->,3,-79,2050,2051,
20324,1378,1306,1414,1426,49500,65637,98109,49500,,IMU->,0,-79,2054,2055,
19958,1390,1248,1249,1435,49500,65637,98109,49500,,IMU->,-4,-77,2051,2052,
19989,1384,1233,1134,1439,49500,65637,98109,49500,,IMU->,-1,-80,2045,2046,
19989,1384,1205,1102,1424,49500,65637,98109,49500,,IMU->,-1,-77,2048,2049,
19989,1382,1206,1112,1439,49500,65637,98109,49500,,IMU->,-3,-82,2053,2054,
19989,1382,1234,1176,1421,49500,65637,98109,49500,,IMU->,0,-77,2050,2051,
19958,1374,1240,1275,1417,49500,65637,98109,49500,,IMU->,-1,-77,2049,2050,
19958,1378,1284,1385,1438,49500,65637,98109,49500,,IMU->,-2,-75,2052,2053,
19989,1388,1310,1471,1425,49500,65637,98109,49500,,IMU->,-1,-78,2049,2050,
19958,1382,1325,1518,1440,49500,65637,98109,49500,,IMU->,-3,-79,2050,2051,
19989,1387,1337,1492,1436,49500,65637,98109,49500,,IMU->,0,-79,2051,2052,
19958,1385,1303,1426,1423,49500,65637,98109,49500,,IMU->,0,-80,2047,2048,
19958,1367,1292,1354,1433,49500,65637,98109,49500,,IMU->,-2,-80,2051,2052,
19989,1384,1267,1274,1430,49500,65637,98109,49500,,IMU->,-1,-76,2052,2053,
20355,1374,1233,1169,1424,49500,65637,98109,49500,,IMU->,-2,-77,2045,2046,
19958,1383,1216,1088,1430,49500,65637,98109,49500,,IMU->,-2,-77,2052,2053,
19989,1395,1201,1015,1439,49500,65637,98109,49500,,IMU->,0,-78,2051,2052,
19958,1377,1173,906,1423,49500,65637,98109,49500,,IMU->,0,-76,2048,2049,
19958,1378,1146,864,1424,49500,65637,98109,49500,,IMU->,-2,-79,2045,2046,
19989,1384,1129,811,1430,49500,65637,98109,49500,,IMU->,-1,-76,2049,2050,
19958,1361,1124,770,1415,49500,65637,98109,49500,,IMU->,0,-75,2050,2051,
19958,1381,1117,765,1431,49500,65637,98109,49500,,IMU->,1,-80,2050,2051,
19958,1384,1122,740,1431,49500,65637,98109,49500,,IMU->,-2,-78,2052,2053,
19958,1370,1113,733,1430,49500,65637,98109,49500,,IMU->,-2,-82,2046,2047,
19989,1391,1122,731,1435,49500,65637,98109,49500,,IMU->,-1,-77,2049,2050,
20324,1376,1121,729,1415,49500,65637,98109,49500,,IMU->,-1,-78,2049,2050,
19958,1382,1119,728,1426,49500,65637,98109,49500,,IMU->,0,-77,2050,2051,
19958,1378,1129,728,1428,49500,65637,98109,49500,,IMU->,0,-78,2048,2049,
19958,1380,1117,731,1418,49500,65637,98109,49500,,IMU->,-1,-75,2051,2052,
19958,1380,1125,736,1429,49500,65637,98109,49500,,IMU->,1,-81,2048,2049,
19958,1375,1127,722,1423,49500,65637,98109,49500,,IMU->,1,-76,2048,2049,
19958,1371,1110,699,1420,49500,65637,98109,49500,,IMU->,0,-76,2048,2049,
19958,1373,1110,646,1431,49500,65637,98109,49500,,IMU->,-3,-77,2048,2049,
20324,1380,1086,606,1416,49500,65637,98109,49500,,IMU->,2,-79,2050,2051,
19958,1381,1064,557,1428,49500,65637,98109,49500,,IMU->,0,-74,2047,2048,
19958,1364,1065,494,1432,49500,65637,98109,49500,,IMU->,-5,-81,2046,2047,
19989,1380,1042,440,1417,49500,65637,98109,49500,,IMU->,-2,-82,2051,2052,
19958,1365,1029,409,1431,49500,65637,98109,49500,,IMU->,0,-77,2049,2050,
19958,1380,1048,483,1423,49500,65637,98109,49500,,IMU->,0,-73,2049,2050,
19958,1377,1100,764,1428,49500,65637,98109,49500,,IMU->,1,-76,2049,2050,
19958,1373,1239,1252,1429,49500,65637,98109,49500,,IMU->,-4,-76,2050,2051,
19989,1387,1379,1795,1437,49500,65637,98109,49500,,IMU->,-1,-82,2049,2050,
19958,1385,1500,2165,1445,49500,65637,98109,49500,,IMU->,-2,-73,2051,2052,
19989,1395,1552,2359,1441,49500,65637,98109,49500,,IMU->,2,-74,2048,2049,
20324,1397,1574,2379,1444,49500,65637,98109,49500,,IMU->,1,-78,2047,2048,
19958,1392,1555,2277,1425,49500,65637,98109,49500,,IMU->,2,-77,2049,2050,
19958,1390,1501,2107,1435,49500,65637,98109,49500,,IMU->,-1,-77,2047,2048,
19989,1389,1466,1923,1440,49500,65637,98109,49500,,IMU->,-4,-76,2047,2048,
19958,1389,1416,1752,1435,49500,65637,98109,49500,,IMU->,-2,-75,2050,2051,
19989,1384,1377,1609,1430,49500,65571,98109,49500,,IMU->,-3,-75,2051,2052,
19989,1375,1343,1444,1426,49500,65571,98109,49500,,IMU->,0,-78,2055,2056,
19958,1389,1304,1326,1430,49500,65571,98109,49500,,IMU->,0,-76,2045,2046,
19958,1384,1283,1231,1445,49500,65571,98109,49500,,IMU->,0,-78,2050,2051,
19958,1373,1268,1215,1421,49500,65571,98109,49500,,IMU->,2,-77,2048,2049,
19958,1387,1279,1253,1435,49500,65571,98109,49500,,IMU->,-3,-75,2054,2055,
20324,1392,1311,1317,1432,49500,65571,98109,49500,,IMU->,-1,-79,2051,2052,
19989,1387,1316,1406,1427,49500,65571,98109,49500,,IMU->,-2,-85,2042,2043,
19958,1383,1349,1490,1436,49500,65571,98109,49500,,IMU->,2,-72,2056,2057,
19958,1387,1363,1547,1426,49500,65571,98109,49500,,IMU->,-3,-77,2050,2051,
19989,1385,1365,1535,1436,49500,65571,98109,49500,,IMU->,-1,-79,2047,2048,
19958,1380,1361,1501,1429,49500,65571,98109,49500,,IMU->,-4,-78,2047,2048,
19989,1378,1343,1449,1418,49500,65571,98109,49500,,IMU->,2,-75,2051,2052,
19958,1391,1330,1360,1434,49500,65571,98109,49500,,IMU->,-3,-79,2046,2047,
19989,1381,1296,1271,1423,49500,65571,98109,49500,,IMU->,-4,-79,2051,2052,
19958,1382,1266,1183,1438,49500,65571,98109,49500,,IMU->,0,-76,2045,2046,
19958,1379,1256,1089,1436,49500,65571,98109,49500,,IMU->,0,-80,2046,2047,
20324,1389,1223,1008,1425,49500,65571,98109,49500,,IMU->,-2,-78,2046,2047,
19989,1392,1203,933,1437,49500,65571,98109,49500,,IMU->,-3,-79,2048,2049,
19958,1389,1190,890,1426,49500,65571,98109,49500,,IMU->,-2,-76,2048,2049,
19989,1376,1175,840,1425,49500,65571,98109,49500,,IMU->,-1,-75,2046,2047,
19958,1373,1173,813,1425,49500,65571,98109,49500,,IMU->,-1,-78,2051,2052,
19958,1368,1162,802,1427,49500,65571,98109,49500,,IMU->,0,-76,2049,2050,
19958,1376,1160,754,1439,49500,65571,98109,49500,,IMU->,-2,-77,2054,2055,
19989,1387,1155,768,1430,49500,65571,98109,49500,,IMU->,-4,-81,2044,2045,
19989,1384,1162,781,1433,49500,65571,98109,49500,,IMU->,-2,-77,2054,2055,
19958,1379,1169,768,1428,49500,65571,98109,49500,,IMU->,-1,-75,2052,2053,
19958,1382,1156,771,1421,49500,65571,98109,49500,,IMU->,0,-80,2050,2051,
20324,1381,1153,741,1431,49500,65571,98109,49500,,IMU->,0,-81,2048,2049,
19958,1382,1154,740,1425,49500,65571,98109,49500,,IMU->,-2,-75,2054,2055,
19989,1386,1148,716,1429,49500,65571,98109,49500,,IMU->,0,-78,2048,2049,
19958,1380,1145,685,1431,49500,65571,98109,49500,,IMU->,1,-75,2047,2048,
19958,1391,1136,663,1427,49500,65571,98109,49500,,IMU->,-2,-78,2051,2052,
19958,1378,1140,618,1430,49500,65571,98109,49500,,IMU->,-2,-79,2049,2050,
19958,1373,1115,598,1420,49500,65571,98109,49500,,IMU->,0,-78,2049,2050,
19958,1384,1105,562,1430,49500,65571,98109,49500,,IMU->,1,-77,2049,2050,
19958,1372,1100,510,1432,49500,65571,98109,49500,,IMU->,-4,-77,2047,2048,
20324,1386,1075,460,1420,49500,65571,98109,49500,,IMU->,-4,-79,2049,2050,
19958,1383,1073,408,1431,49500,65571,98109,49500,,IMU->,0,-79,2044,2045,
19958,1381,1057,369,1422,49500,65571,98109,49500,,IMU->,-4,-75,2047,2048,
19989,1386,1033,342,1430,49500,65571,98109,49500,,IMU->,-2,-76,2051,2052,
19989,1375,1052,330,1427,49500,65571,98109,49500,,IMU->,-1,-81,2050,2051,
19989,1378,1054,454,1418,49500,65571,98109,49500,,IMU->,-2,-75,2048,2049,
19989,1377,1159,813,1444,49500,65571,98109,49500,,IMU->,-1,-77,2048,2049,
19958,1390,1298,1338,1434,49500,65571,98109,49500,,IMU->,-5,-80,2051,2052,
19958,1395,1427,1860,1432,49500,65571,98109,49500,,IMU->,-1,-76,2047,2048,
19958,1380,1533,2192,1436,49500,65571,98109,49500,,IMU->,1,-78,2049,2050,
19958,1389,1577,2324,1436,49500,65571,98109,49500,,IMU->,1,-74,2048,2049,
19958,1382,1584,2290,1446,49500,65571,98109,49500,,IMU->,0,-74,2050,2051,
20324,1401,1564,2174,1448,49500,65571,98109,49500,,IMU->,-1,-75,2052,2053,
19989,1397,1511,1975,1442,49500,65571,98109,49500,,IMU->,0,-78,2046,2047,
19958,1386,1475,1797,1437,49500,65571,98109,49500,,IMU->,-3,-76,2046,2047,
19958,1386,1419,1635,1430,49500,65571,98109,49500,,IMU->,2,-72,2049,2050,
19958,1377,1373,1448,1430,49500,65571,98109,49500,,IMU->,-1,-82,2053,2054,
19989,1379,1331,1308,1429,49500,65571,98109,49500,,IMU->,0,-77,2047,2048,
19958,1389,1300,1194,1426,49500,65571,98109,49500,,IMU->,-1,-74,2051,2052,
19989,1379,1277,1124,1436,49500,65571,98109,49500,,IMU->,-2,-77,2055,2056,
19958,1396,1287,1141,1438,49500,65571,98109,49500,,IMU->,-2,-80,2048,2049,
19989,1394,1300,1179,1432,49500,65571,98109,49500,,IMU->,0,-76,2051,2052,
19958,1372,1311,1260,1428,49500,65571,98109,49500,,IMU->,1,-76,2045,2046,
20324,1388,1334,1363,1427,49500,65571,98109,49500,,IMU->,-2,-77,2053,2054,
19958,1383,1370,1431,1423,49500,65571,98109,49500,,IMU->,0,-76,2049,2050,
19958,1381,1366,1467,1424,49500,65571,98109,49500,,IMU->,-1,-80,2048,2049,
19958,1392,1393,1473,1448,49500,65571,98109,49500,,IMU->,-5,-77,2048,2049,
19989,1394,1380,1439,1432,49500,65571,98109,49500,,IMU->,-1,-76,2052,2053,
19989,1386,1356,1372,1431,49500,65571,98109,49500,,IMU->,-4,-80,2042,2043,
19989,1379,1346,1294,1433,49500,65571,98109,49500,,IMU->,1,-70,2054,2055,
19958,1378,1311,1216,1419,49500,65571,98109,49500,,IMU->,-3,-81,2048,2049,
19958,1387,1299,1111,1437,49500,65571,98109,49500,,IMU->,-3,-79,2046,2047,
19989,1381,1272,1034,1430,49500,65571,98109,49500,,IMU->,0,-77,2054,2055,
19958,1384,1241,956,1436,49500,65571,98109,49500,,IMU->,-2,-77,2045,2046,
19989,1405,1248,895,1443,49500,65571,98109,49500,,IMU->,-4,-82,2051,2052,
19989,1391,1219,844,1412,49500,65571,98109,49500,,IMU->,1,-76,2048,2049,
20324,1386,1199,799,1439,49500,65571,98109,49500,,IMU->,1,-77,2050,2051,
19958,1396,1206,790,1439,49500,65571,98109,49500,,IMU->,0,-80,2046,2047,
19958,1386,1197,759,1440,49500,65571,98109,49500,,IMU->,-6,-79,2050,2051,
19958,1390,1204,774,1450,49500,65571,98109,49500,,IMU->,-3,-77,2049,2050,
19989,1405,1213,789,1445,49500,65571,98109,49500,,IMU->,0,-67,2053,2054,
19958,1397,1214,775,1441,49500,65571,98109,49500,,IMU->,1,-78,2047,2048,
19958,1391,1210,789,1451,49500,65571,98109,49500,,IMU->,-5,-82,2054,2055,
19989,1401,1221,811,1446,49500,65571,98109,49500,,IMU->,-3,-81,2048,2049,
19958,1387,1229,795,1439,49500,65571,98109,49500,,IMU->,2,-80,2046,2047,
19958,1390,1233,811,1446,49500,65571,98109,49500,,IMU->,2,-77,2048,2049,
20324,1410,1234,779,1453,49500,65571,98109,49500,,IMU->,0,-73,2052,2053,
19958,1399,1219,737,1448,49500,65571,98109,49500,,IMU->,5,-78,2047,2048,
19958,1402,1194,691,1451,49500,65571,98109,49500,,IMU->,-1,-82,2045,2046,
19958,1398,1183,608,1445,49500,65571,98109,49500,,IMU->,0,-77,2051,2052,
19958,1395,1155,547,1445,49500,65571,98109,49500,,IMU->,-2,-74,2049,2050,
19989,1402,1146,501,1458,49500,65571,98109,49500,,IMU->,-4,-76,2048,2049,
19989,1401,1129,450,1448,49500,65571,98109,49500,,IMU->,-1,-77,2044,2045,
19989,1410,1122,462,1463,49500,65571,98109,49500,,IMU->,2,-73,2051,2052,
19958,1415,1170,549,1462,49500,65571,98109,49500,,IMU->,-6,-74,2047,2048,
19989,1402,1202,820,1447,49500,65571,98109,49500,,IMU->,0,-81,2053,2054,
19958,1406,1323,1220,1472,49500,65571,98109,49500,,IMU->,0,-75,2047,2048,
20324,1420,1441,1653,1462,49500,65571,98109,49500,,IMU->,4,-80,2046,2047,
19958,1431,1517,1952,1471,49500,65571,98109,49500,,IMU->,-5,-78,2048,2049,
19989,1436,1586,2067,1495,49500,65571,98109,49500,,IMU->,-2,-78,2053,2054,
19989,1442,1582,2015,1479,49500,65571,98109,49500,,IMU->,0,-79,2046,2047,
19958,1430,1551,1874,1487,49500,65571,98109,49500,,IMU->,1,-78,2046,2047,
19958,1439,1518,1703,1483,49500,65571,98109,49500,,IMU->,3,-75,2049,2050,
19958,1435,1451,1512,1462,49500,65571,98109,49500,,IMU->,1,-79,2045,2046,
19958,1414,1401,1311,1464,49500,65571,98109,49500,,IMU->,-4,-79,2049,2050,
19958,1417,1346,1124,1457,49500,65571,98109,49500,,IMU->,-1,-76,2048,2049,
19989,1403,1288,929,1452,49500,65571,98109,49500,,IMU->,-1,-74,2048,2049,
19958,1392,1250,826,1451,49500,65571,98109,49500,,IMU->,-1,-79,2054,2055,
20324,1406,1241,798,1446,49500,65571,98109,49500,,IMU->,0,-79,2052,2053,
19958,1389,1250,846,1443,49500,65571,98109,49500,,IMU->,3,-77,2046,2047,
19958,1398,1277,962,1444,49500,65571,98109,49500,,IMU->,0,-76,2052,2053,
19958,1406,1313,1070,1455,49500,65571,98109,49500,,IMU->,-3,-81,2056,2057,
19958,1393,1345,1193,1448,49500,65571,98109,49500,,IMU->,-1,-78,2050,2051,
19989,1399,1367,1276,1448,49500,65571,98109,49500,,IMU->,1,-75,2051,2052,
19958,1391,1386,1281,1439,49500,65571,98109,49500,,IMU->,-4,-76,2049,2050,
19989,1390,1374,1289,1441,49500,65571,98109,49500,,IMU->,-1,-74,2049,2050,
19989,1397,1373,1227,1446,49500,65571,98109,49500,,IMU->,0,-76,2051,2052,
19958,1387,1345,1139,1429,49500,65571,98109,49500,,IMU->,0,-78,2050,2051,
20324,1389,1309,1063,1443,49500,65571,98109,49500,,IMU->,-1,-77,2048,2049,
19989,1397,1308,975,1438,49500,65571,98109,49500,,IMU->,-1,-80,2050,2051,
19958,1378,1268,883,1420,49500,65571,98109,49500,,IMU->,-1,-80,2050,2051,
19989,1384,1245,801,1445,49500,65571,98109,49500,,IMU->,0,-75,2048,2049,
19958,1393,1236,752,1432,49500,65571,98109,49500,,IMU->,-2,-77,2050,2051,
19989,1383,1202,690,1424,49500,65571,98109,49500,,IMU->,2,-82,2050,2051,
19958,1384,1211,643,1444,49500,65571,98109,49500,,IMU->,0,-74,2055,2056,
19958,1391,1203,650,1429,49500,65571,98109,49500,,IMU->,-5,-80,2043,2044,
19989,1379,1192,610,1431,49500,65571,98109,49500,,IMU->,-1,-69,2045,2046,
19989,1385,1196,621,1436,49500,65571,98109,49500,,IMU->,-3,-71,2047,2048,
19989,1385,1195,634,1427,49500,65571,98109,49500,,IMU->,-3,-81,2051,2052,
19958,1374,1200,629,1429,49500,65571,98109,49500,,IMU->,0,-79,2049,2050,
19958,1378,1203,645,1421,49500,65571,98109,49500,,IMU->,-1,-80,2046,2047,
19989,1382,1197,623,1433,49500,65571,98109,49500,,IMU->,-5,-98,2045,2047,
20324,1389,1206,614,1437,49500,65571,98109,49500,,IMU->,7,-58,2054,2054,
19958,1394,1198,609,1429,49500,65571,98109,49500,,IMU->,10,-54,2054,2054,
19989,1366,1188,567,1428,49500,65571,98109,49500,,IMU->,-10,-95,2045,2047,
19958,1384,1183,550,1434,49500,65571,98109,49500,,IMU->,1,-71,2039,2040,
19958,1394,1174,495,1429,49500,65571,98109,49500,,IMU->,-6,-84,2050,2051,
19989,1375,1168,490,1429,49500,65571,98109,49500,,IMU->,0,-69,2048,2049,
19958,1385,1177,578,1432,49500,65571,98109,49500,,IMU->,2,-66,2053,2054,
19958,1379,1245,837,1421,49500,65571,98109,49500,,IMU->,-10,-92,2054,2056,
19989,1370,1354,1279,1425,49500,65571,98109,49500,,IMU->,-4,-79,2041,2042,
19989,1386,1477,1760,1444,49500,65571,98109,49500,,IMU->,-1,-83,2054,2055,
19989,1387,1580,2078,1440,49500,65571,98109,49500,,IMU->,1,-70,2048,2049,
19958,1385,1622,2242,1446,49500,65571,98109,49500,,IMU->,-1,-79,2053,2054,
20355,1396,1644,2259,1447,49500,65571,98109,49500,,IMU->,0,-79,2052,2053,
19958,1394,1626,2159,1435,49500,65571,98109,49500,,IMU->,0,-80,2046,2047,
19958,1394,1585,1979,1441,49500,65571,98109,49500,,IMU->,0,-82,2051,2052,
19958,1388,1534,1807,1435,49500,65571,98109,49500,,IMU->,0,-79,2054,2055,
19958,1392,1483,1648,1440,49500,65571,98109,49500,,IMU->,0,-79,2048,2049,
19958,1389,1459,1478,1443,49500,65571,98109,49500,,IMU->,0,-80,2048,2049,
19958,1384,1410,1336,1425,49500,65571,98109,49500,,IMU->,-5,-83,2049,2050,
19989,1388,1370,1209,1442,49500,65571,98109,49500,,IMU->,-2,-75,2049,2050,
19989,1385,1362,1169,1436,49500,65571,98109,49500,,IMU->,2,-76,2045,2046,
19989,1386,1348,1165,1431,49500,65406,98175,49500,,IMU->,-2,-79,2050,2051,
19989,1371,1221,1212,1430,49500,65406,98175,49500,,IMU->,-5,-85,2051,2052,
19958,1378,1254,1312,1429,49500,65406,98175,49500,,IMU->,2,-78,2050,2051,
20324,1395,1277,1397,1439,49500,65406,98175,49500,,IMU->,2,-75,2048,2049,
19958,1394,1302,1494,1441,49500,65406,98175,49500,,IMU->,-5,-84,2048,2049,
19989,1399,1316,1537,1431,49500,65406,98175,49500,,IMU->,2,-78,2054,2055,
19958,1377,1312,1523,1431,49500,65406,98175,49500,,IMU->,-4,-75,2050,2051,
19989,1381,1306,1480,1430,49500,65406,98175,49500,,IMU->,-1,-75,2045,2046,
19989,1387,1283,1400,1436,49500,65406,98175,49500,,IMU->,-5,-78,2048,2049,
19989,1379,1262,1301,1434,49500,65406,98175,49500,,IMU->,-1,-80,2057,2058,
19958,1391,1234,1242,1437,49500,65406,98175,49500,,IMU->,-3,-76,2050,2051,
19958,1386,1222,1157,1441,49500,65406,98175,49500,,IMU->,2,-66,2055,2056,
19958,1397,1194,1064,1428,49500,65406,98175,49500,,IMU->,-7,-86,2050,2051,
19989,1381,1166,977,1438,49500,65406,98175,49500,,IMU->,1,-75,2049,2050,
19958,1373,1149,911,1433,49500,65406,98175,49500,,IMU->,1,-75,2050,2051,
20324,1394,1129,878,1432,49500,65406,98175,49500,,IMU->,-2,-80,2053,2054,
19989,1385,1135,853,1440,49500,65406,98175,49500,,IMU->,-2,-80,2049,2050,
19958,1392,1125,836,1429,49500,65406,98175,49500,,IMU->,-3,-79,2053,2054,
19989,1392,1121,812,1434,49500,65406,98175,49500,,IMU->,-3,-79,2049,2050,
19958,1376,1124,805,1424,49500,65406,98175,49500,,IMU->,-1,-78,2047,2048,
19989,1382,1114,823,1432,49500,65406,98175,49500,,IMU->,-4,-76,2046,2047,
19989,1380,1133,822,1435,49500,65406,98175,49500,,IMU->,-3,-77,2052,2053,
19989,1380,1131,828,1426,49500,65406,98175,49500,,IMU->,1,-77,2049,2050,
19958,1394,1130,823,1441,49500,65406,98175,49500,,IMU->,-3,-81,2051,2052,
19958,1382,1134,819,1440,49500,65406,98175,49500,,IMU->,-1,-77,2052,2053,
19989,1382,1113,798,1433,49500,65406,98175,49500,,IMU->,-1,-77,2051,2052,
19958,1379,1115,754,1431,49500,65406,98175,49500,,IMU->,-3,-82,2047,2048,
19989,1385,1099,718,1420,49500,65406,98175,49500,,IMU->,-5,-80,2051,2052,
20324,1387,1086,673,1430,49500,65406,98175,49500,,IMU->,-4,-82,2048,2049,
19989,1383,1075,605,1430,49500,65406,98175,49500,,IMU->,2,-76,2051,2052,
19958,1394,1060,584,1441,49500,65406,98175,49500,,IMU->,-5,-81,2050,2051,
19989,1393,1067,562,1438,49500,65406,98175,49500,,IMU->,-2,-68,2049,2050,
19958,1379,1051,585,1421,49500,65406,98175,49500,,IMU->,-4,-84,2050,2051,
19989,1377,1098,795,1433,49500,65406,98175,49500,,IMU->,-6,-93,2051,2053,
19958,1385,1202,1210,1437,49500,65406,98175,49500,,IMU->,0,-71,2051,2052,
19958,1386,1318,1727,1438,49500,65406,98175,49500,,IMU->,-3,-85,2050,2051,
19989,1384,1439,2102,1454,49500,65406,98175,49500,,IMU->,-4,-80,2052,2053,
19958,1403,1504,2319,1448,49500,65406,98175,49500,,IMU->,2,-71,2050,2051,
19958,1406,1519,2342,1452,49500,65406,98175,49500,,IMU->,1,-77,2050,2051,
19958,1390,1502,2231,1448,49500,65406,98175,49500,,IMU->,-4,-82,2045,2046,
20355,1395,1448,2068,1442,49500,65406,98175,49500,,IMU->,-5,-89,2046,2047,
19989,1393,1379,1810,1447,49500,65406,98175,49500,,IMU->,-1,-74,2049,2050,
19958,1394,1323,1639,1443,49500,65406,98175,49500,,IMU->,2,-72,2053,2054,
19958,1409,1283,1460,1456,49500,65406,98175,49500,,IMU->,2,-77,2049,2050,
19958,1407,1239,1297,1458,49500,65406,98175,49500,,IMU->,0,-75,2049,2050,
19958,1414,1188,1151,1448,49500,65406,98175,49500,,IMU->,-5,-82,2049,2050,
19958,1400,1163,1040,1450,49500,65406,98175,49500,,IMU->,-9,-91,2048,2050,
19989,1393,1154,1026,1441,49500,65406,98175,49500,,IMU->,-2,-79,2050,2051,
19958,1401,1150,1049,1449,49500,65406,98175,49500,,IMU->,0,-78,2055,2056,
19958,1391,1171,1085,1447,49500,65406,98175,49500,,IMU->,-3,-79,2050,2051,
19989,1405,1182,1201,1447,49500,65406,98175,49500,,IMU->,0,-79,2052,2053,
20324,1407,1214,1259,1454,49500,65406,98175,49500,,IMU->,-3,-81,2051,2052,
19958,1400,1225,1307,1441,49500,65406,98175,49500,,IMU->,-2,-75,2048,2049,
19989,1403,1220,1317,1456,49500,65406,98175,49500,,IMU->,0,-74,2050,2051,
19958,1406,1224,1269,1455,49500,65406,98175,49500,,IMU->,-6,-82,2048,2049,
19958,1403,1197,1199,1448,49500,65406,98175,49500,,IMU->,-1,-79,2049,2050,
19989,1401,1187,1118,1457,49500,65406,98175,49500,,IMU->,0,-72,2052,2053,
19958,1399,1159,1029,1445,49500,65406,98175,49500,,IMU->,-4,-77,2048,2049,
19958,1401,1125,926,1454,49500,65406,98175,49500,,IMU->,2,-68,2049,2050,
19958,1395,1109,845,1450,49500,65406,98175,49500,,IMU->,-5,-78,2051,2052,
19958,1392,1076,781,1440,49500,65406,98175,49500,,IMU->,1,-71,2049,2050,
20324,1389,1071,706,1448,49500,65406,98175,49500,,IMU->,-5,-86,2050,2051,
19958,1400,1060,687,1449,49500,65406,98175,49500,,IMU->,0,-76,2052,2053,
19958,1408,1045,634,1449,49500,65406,98175,49500,,IMU->,2,-77,2051,2052,
19958,1398,1048,596,1457,49500,65406,98175,49500,,IMU->,-1,-71,2048,2049,
19958,1406,1032,589,1443,49500,65406,98175,49500,,IMU->,4,-69,2051,2052,
19958,1398,1022,562,1444,49500,65406,98175,49500,,IMU->,-77,-309,2052,2076,
19989,1395,1039,603,1445,49500,65406,98175,49500,,IMU->,-107,-303,2044,2069,
19989,1402,1052,597,1450,49500,65406,98175,49500,,IMU->,-74,-237,2043,2058,
19989,1395,1046,611,1457,49500,65406,98175,49500,,IMU->,-58,-192,2041,2050,
19989,1410,1052,639,1460,49500,65406,98175,49500,,IMU->,3,-76,2037,2038,
19958,1396,1059,615,1459,49500,65406,98175,49500,,IMU->,12,-56,2052,2052,
20324,1404,1058,618,1446,49500,65406,98175,49500,,IMU->,-37,-133,2070,2074,
19958,1409,1066,619,1452,49500,65406,98175,49500,,IMU->,-55,-174,2086,2093,
19989,1398,1058,584,1448,49500,65406,98175,49500,,IMU->,-43,-158,2042,2048,
19958,1397,1040,563,1453,49500,65406,98175,49500,,IMU->,-4,-76,2060,2061,
19989,1415,1039,515,1469,49500,65406,98175,49500,,IMU->,9,-29,2032,2032,
19958,1409,1025,456,1451,49500,65406,98175,49500,,IMU->,32,1,2026,2026,
19958,1415,1003,392,1466,49500,65406,98175,49500,,IMU->,38,14,2053,2053,
19989,1418,989,326,1470,49500,65406,98175,49500,,IMU->,15,-40,2054,2054,
19958,1409,955,284,1456,49500,65406,98175,49500,,IMU->,7,-49,2048,2048,
19958,1412,939,238,1477,49500,65406,98175,49500,,IMU->,9,-41,2048,2048,
19958,1412,948,228,1468,49500,65406,98175,49500,,IMU->,29,13,2051,2051,
20324,1426,950,294,1477,49500,65406,98175,49500,,IMU->,50,46,2053,2054,
19958,1427,1034,612,1484,49500,65406,98175,49500,,IMU->,50,64,2071,2072,
19958,1437,1156,1068,1477,49500,65406,98175,49500,,IMU->,45,30,2051,2051,
19989,1417,1277,1542,1485,49500,65406,98175,49500,,IMU->,26,-22,2048,2048,
19958,1439,1384,1883,1485,49500,65406,98175,49500,,IMU->,16,-40,2048,2048,
19989,1439,1425,2005,1488,49500,65406,98175,49500,,IMU->,30,-16,2049,2049,
19958,1435,1446,1997,1497,49500,65406,98175,49500,,IMU->,24,-16,2047,2047,
19958,1439,1414,1888,1481,49500,65406,98175,49500,,IMU->,12,-43,2048,2048,
19989,1425,1368,1704,1485,49500,65406,98175,49500,,IMU->,-1,-71,2051,2052,
19958,1426,1332,1536,1479,49500,65406,98175,49500,,IMU->,1,-68,2050,2051,
20324,1437,1289,1384,1476,49500,65406,98175,49500,,IMU->,0,-72,2050,2051,
19958,1417,1244,1216,1479,49500,65406,98175,49500,,IMU->,0,-72,2047,2048,
19958,1440,1210,1103,1489,49500,65406,98175,49500,,IMU->,8,-57,2051,2051,
19958,1437,1191,968,1482,49500,65406,98175,49500,,IMU->,9,-61,2051,2051,
19989,1413,1162,929,1468,49500,65406,98175,49500,,IMU->,7,-69,2047,2048,
19958,1432,1175,959,1479,49500,65406,98175,49500,,IMU->,7,-61,2044,2044,
19958,1427,1191,998,1471,49500,65406,98175,49500,,IMU->,7,-58,2059,2059,
19958,1417,1204,1111,1473,49500,65406,98175,49500,,IMU->,3,-70,2050,2051,
19989,1429,1237,1215,1487,49500,65406,98175,49500,,IMU->,-3,-75,2048,2049,
19989,1422,1262,1295,1472,49500,65406,98175,49500,,IMU->,0,-63,2061,2061,
19958,1433,1275,1335,1484,49500,65406,98175,49500,,IMU->,5,-60,2044,2044,
20324,1432,1284,1321,1478,49500,65406,98175,49500,,IMU->,1,-69,2049,2050,
19958,1416,1257,1272,1467,49500,65406,98175,49500,,IMU->,3,-67,2048,2049,
19958,1434,1254,1194,1487,49500,65406,98175,49500,,IMU->,10,-53,2047,2047,
19989,1433,1226,1103,1466,49500,65406,98175,49500,,IMU->,6,-63,2045,2045,
19958,1424,1193,1018,1477,49500,65406,98175,49500,,IMU->,7,-63,2051,2051,
19958,1438,1186,932,1485,49500,65406,98175,49500,,IMU->,6,-61,2050,2050,
19989,1430,1150,846,1468,49500,65406,98175,49500,,IMU->,-4,-74,2058,2059,
19989,1422,1130,773,1481,49500,65406,98175,49500,,IMU->,4,-67,2034,2035,
19958,1427,1139,724,1477,49500,65406,98175,49500,,IMU->,6,-63,2046,2046,
19958,1420,1100,666,1465,49500,65406,98175,49500,,IMU->,7,-55,2050,2050,
19958,1400,1099,649,1485,49500,65406,98175,49500,,IMU->,4,-61,2048,2048,
20324,1436,1097,651,1472,49500,65406,98175,49500,,IMU->,8,-53,2051,2051,
19958,1415,1089,628,1473,49500,65406,98175,49500,,IMU->,6,-66,2049,2050,
19958,1418,1098,640,1473,49500,65406,98175,49500,,IMU->,0,-69,2051,2052,
19958,1435,1110,643,1470,49500,65406,98175,49500,,IMU->,2,-74,2049,2050,
19958,1422,1104,622,1481,49500,65406,98175,49500,,IMU->,5,-70,2046,2047,
19958,1424,1094,628,1476,49500,65406,98175,49500,,IMU->,10,-52,2050,2050,
19989,1426,1096,586,1477,49500,65406,98175,49500,,IMU->,3,-60,2050,2050,
19958,1414,1085,556,1467,49500,65406,98175,49500,,IMU->,2,-62,2050,2050,
19958,1424,1074,535,1476,49500,65406,98175,49500,,IMU->,9,-59,2051,2051,
20324,1423,1075,499,1469,49500,65406,98175,49500,,IMU->,0,-78,2048,2049,
19958,1419,1062,521,1472,49500,65406,98175,49500,,IMU->,4,-63,2052,2052,
19958,1429,1090,581,1479,49500,65406,98175,49500,,IMU->,3,-68,2052,2053,
19958,1421,1138,778,1469,49500,65406,98175,49500,,IMU->,5,-61,2049,2049,
19958,1428,1217,1150,1483,49500,65406,98175,49500,,IMU->,8,-51,2053,2053,
19958,1432,1331,1542,1487,49500,65406,98175,49500,,IMU->,4,-68,2049,2050,
19958,1421,1388,1804,1471,49500,65406,98175,49500,,IMU->,0,-70,2051,2052,
19958,1432,1445,1927,1489,49500,65406,98175,49500,,IMU->,5,-61,2051,2051,
19989,1437,1452,1909,1474,49500,65406,98175,49500,,IMU->,2,-64,2055,2055,
20324,1432,1422,1805,1476,49500,65406,98175,49500,,IMU->,4,-64,2050,2051,
19958,1443,1403,1671,1492,49500,65406,98175,49500,,IMU->,6,-65,2047,2048,
19958,1436,1351,1511,1472,49500,65406,98175,49500,,IMU->,7,-56,2047,2047,
19958,1421,1309,1345,1481,49500,65406,98175,49500,,IMU->,1,-67,2049,2050,
19958,1428,1277,1184,1471,49500,65406,98175,49500,,IMU->,5,-68,2048,2049,
19958,1420,1223,1014,1464,49500,65406,98175,49500,,IMU->,2,-66,2052,2053,
19958,1417,1197,907,1479,49500,65406,98175,49500,,IMU->,1,-65,2048,2049,
19958,1433,1191,893,1474,49500,65406,98175,49500,,IMU->,3,-65,2048,2049,
20324,1428,1194,907,1479,49500,65406,98175,49500,,IMU->,6,-64,2050,2051,
19958,1432,1228,988,1475,49500,65406,98175,49500,,IMU->,8,-64,2053,2054,
19958,1437,1233,1096,1481,49500,65406,98175,49500,,IMU->,2,-69,2048,2049,
19958,1429,1278,1187,1494,49500,65406,98175,49500,,IMU->,1,-69,2047,2048,
19958,1437,1300,1282,1499,49500,65406,98175,49500,,IMU->,4,-64,2050,2051,
19958,1453,1326,1315,1506,49500,65406,98175,49500,,IMU->,2,-64,2049,2050,
19958,1452,1345,1324,1513,49500,65406,98175,49500,,IMU->,5,-63,2046,2046,
19958,1467,1336,1287,1511,49500,65406,98175,49500,,IMU->,2,-62,2053,2053,
19958,1456,1316,1205,1506,49500,65406,98175,49500,,IMU->,3,-62,2050,2050,
19989,1460,1284,1125,1503,49500,65340,98274,49500,,IMU->,2,-66,2049,2050,
20324,1459,1113,1188,1500,49500,65340,98274,49500,,IMU->,4,-63,2049,2049,
19958,1441,1096,1107,1491,49500,65340,98274,49500,,IMU->,6,-66,2049,2050,
19958,1452,1076,1043,1499,49500,65340,98274,49500,,IMU->,9,-67,2048,2049,
19958,1451,1060,971,1494,49500,65340,98274,49500,,IMU->,6,-65,2050,2051,
19958,1438,1029,931,1478,49500,65340,98274,49500,,IMU->,7,-63,2050,2050,
19958,1440,1021,893,1490,49500,65340,98274,49500,,IMU->,6,-65,2053,2054,
19958,1432,1015,864,1478,49500,65340,98274,49500,,IMU->,1,-67,2051,2052,
19958,1430,1004,840,1483,49500,65340,98274,49500,,IMU->,5,-64,2052,2053,
20324,1436,1005,815,1482,49500,65340,98274,49500,,IMU->,3,-62,2052,2052,
19958,1444,995,827,1481,49500,65340,98274,49500,,IMU->,6,-64,2048,2049,
19958,1439,999,803,1487,49500,65340,98274,49500,,IMU->,7,-60,2050,2050,
19989,1427,997,797,1471,49500,65340,98274,49500,,IMU->,2,-65,2048,2049,
19958,1427,983,789,1471,49500,65340,98274,49500,,IMU->,5,-66,2051,2052,
19958,1425,986,770,1471,49500,65340,98274,49500,,IMU->,4,-68,2047,2048,
19958,1432,977,753,1469,49500,65340,98274,49500,,IMU->,6,-67,2048,2049,
19958,1428,974,734,1480,49500,65340,98274,49500,,IMU->,4,-62,2050,2050,
19958,1413,977,698,1481,49500,65340,98274,49500,,IMU->,4,-66,2048,2049,
20324,1432,956,670,1472,49500,65340,98274,49500,,IMU->,7,-61,2046,2046,
19958,1423,951,647,1477,49500,65340,98274,49500,,IMU->,5,-61,2050,2050,
19989,1423,951,657,1466,49500,65340,98274,49500,,IMU->,2,-59,2050,2050,
19958,1417,966,789,1471,49500,65340,98274,49500,,IMU->,3,-64,2049,2050,
19958,1416,1054,1146,1471,49500,65340,98274,49500,,IMU->,3,-61,2047,2047,
19958,1427,1178,1624,1480,49500,65340,98274,49500,,IMU->,4,-65,2050,2051,
19958,1436,1289,2012,1483,49500,65340,98274,49500,,IMU->,6,-63,2053,2053,
19958,1430,1344,2254,1471,49500,65340,98274,49500,,IMU->,3,-63,2052,2052,
19958,1428,1381,2337,1475,49500,65340,98274,49500,,IMU->,7,-65,2046,2047,
19958,1409,1382,2308,1475,49500,65340,98274,49500,,IMU->,5,-65,2049,2050,
20324,1425,1359,2193,1470,49500,65340,98274,49500,,IMU->,3,-62,2051,2051,
19958,1422,1328,2040,1478,49500,65340,98274,49500,,IMU->,7,-62,2050,2050,
19958,1432,1300,1931,1476,49500,65340,98274,49500,,IMU->,2,-64,2051,2051,
19958,1428,1262,1785,1472,49500,65340,98274,49500,,IMU->,2,-63,2051,2051,
19958,1417,1234,1651,1466,49500,65340,98274,49500,,IMU->,5,-65,2025,2026,
19958,1423,1181,1513,1467,49500,65340,98274,49500,,IMU->,-4,-69,2093,2094,
19989,1414,1161,1411,1468,49500,65340,98274,49500,,IMU->,6,-64,2032,2033,
19958,1415,1138,1362,1465,49500,65340,98274,49500,,IMU->,7,-62,2034,2034,
19958,1417,1140,1354,1482,49500,65340,98274,49500,,IMU->,3,-69,2056,2057,
20324,1418,1157,1386,1458,49500,65340,98274,49500,,IMU->,3,-63,2053,2053,
19958,1426,1167,1464,1467,49500,65340,98274,49500,,IMU->,4,-66,2057,2058,
19958,1424,1188,1525,1474,49500,65340,98274,49500,,IMU->,12,-55,2036,2036,
19989,1420,1193,1567,1470,49500,65340,98274,49500,,IMU->,0,-70,2049,2050,
19958,1422,1203,1582,1477,49500,65340,98274,49500,,IMU->,2,-68,2061,2062,
19958,1421,1212,1577,1473,49500,65340,98274,49500,,IMU->,6,-60,2045,2045,
19958,1427,1192,1525,1484,49500,65340,98274,49500,,IMU->,5,-64,2039,2040,
19958,1422,1178,1426,1473,49500,65340,98274,49500,,IMU->,-1,-62,2064,2064,
19958,1417,1148,1354,1467,49500,65340,98274,49500,,IMU->,0,-65,2051,2052,
20324,1419,1120,1272,1475,49500,65340,98274,49500,,IMU->,2,-62,2044,2044,
19958,1422,1102,1202,1465,49500,65340,98274,49500,,IMU->,6,-64,2045,2046,
19958,1426,1079,1141,1466,49500,65340,98274,49500,,IMU->,4,-61,2066,2066,
19958,1429,1080,1070,1487,49500,65340,98274,49500,,IMU->,6,-67,2039,2040,
19958,1436,1068,1035,1474,49500,65340,98274,49500,,IMU->,3,-71,2046,2047,
19958,1427,1053,993,1478,49500,65340,98274,49500,,IMU->,3,-62,2057,2057,
19958,1424,1049,962,1476,49500,65340,98274,49500,,IMU->,2,-60,2054,2054,
19958,1424,1033,947,1463,49500,65340,98274,49500,,IMU->,5,-64,2041,2042,
20324,1420,1035,911,1471,49500,65340,98274,49500,,IMU->,0,-65,2047,2048,
19958,1417,1039,939,1469,49500,65340,98274,49500,,IMU->,4,-65,2058,2059,
19958,1429,1038,932,1473,49500,65340,98274,49500,,IMU->,5,-67,2046,2047,
19958,1421,1046,933,1472,49500,65340,98274,49500,,IMU->,3,-64,2051,2052,
19958,1435,1043,924,1473,49500,65340,98274,49500,,IMU->,5,-66,2042,2043,
19958,1421,1042,918,1466,49500,65340,98274,49500,,IMU->,2,-62,2063,2063,
19958,1410,1032,895,1465,49500,65340,98274,49500,,IMU->,0,-62,2048,2048,
19958,1423,1030,879,1479,49500,65340,98274,49500,,IMU->,6,-65,2047,2048,
19958,1415,1029,830,1468,49500,65340,98274,49500,,IMU->,7,-63,2047,2047,
20324,1425,1017,793,1472,49500,65340,98274,49500,,IMU->,4,-63,2059,2059,
19958,1425,1009,755,1482,49500,65340,98274,49500,,IMU->,6,-65,2041,2042,
19958,1426,993,721,1470,49500,65340,98274,49500,,IMU->,7,-66,2051,2052,
19958,1436,995,716,1484,49500,65340,98274,49500,,IMU->,5,-63,2051,2051,
19958,1423,1019,824,1471,49500,65340,98274,49500,,IMU->,6,-63,2042,2042,
19958,1420,1084,1173,1474,49500,65340,98274,49500,,IMU->,2,-66,2050,2051,
19958,1443,1225,1679,1497,49500,65340,98274,49500,,IMU->,8,-64,2048,2049,
19958,1432,1335,2132,1482,49500,65340,98274,49500,,IMU->,7,-55,2052,2052,
20324,1432,1409,2415,1497,49500,65340,98274,49500,,IMU->,0,-71,2048,2049,
19958,1452,1470,2555,1499,49500,65340,98274,49500,,IMU->,6,-66,2048,2049,
19958,1446,1465,2558,1490,49500,65340,98274,49500,,IMU->,4,-61,2049,2049,
19958,1446,1461,2473,1505,49500,65340,98274,49500,,IMU->,2,-64,2051,2051,
19958,1453,1430,2349,1486,49500,65340,98274,49500,,IMU->,3,-62,2045,2045,
19958,1436,1379,2179,1482,49500,65340,98274,49500,,IMU->,2,-64,2049,2050,
19958,1430,1352,2043,1482,49500,65340,98274,49500,,IMU->,6,-68,2052,2053,
19958,1430,1315,1879,1477,49500,65340,98274,49500,,IMU->,6,-65,2047,2048,
19958,1421,1263,1699,1476,49500,65340,98274,49500,,IMU->,5,-63,2045,2045,
20324,1428,1240,1611,1476,49500,65340,98274,49500,,IMU->,6,-64,2053,2054,
19958,1428,1233,1580,1480,49500,65340,98274,49500,,IMU->,5,-64,2045,2046,
19958,1423,1245,1585,1475,49500,65340,98274,49500,,IMU->,4,-65,2051,2052,
19958,1432,1258,1641,1479,49500,65340,98274,49500,,IMU->,5,-68,2047,2048,
19958,1430,1270,1696,1480,49500,65340,98274,49500,,IMU->,5,-64,2045,2046,
19958,1424,1290,1792,1482,49500,65340,98274,49500,,IMU->,6,-63,2050,2050,
19958,1437,1312,1873,1480,49500,65340,98274,49500,,IMU->,5,-63,2051,2051,
19958,1417,1321,1890,1464,49500,65340,98274,49500,,IMU->,6,-65,2050,2051,
20324,1431,1322,1896,1473,49500,65340,98274,49500,,IMU->,1,-66,2047,2048,
19958,1435,1321,1832,1478,49500,65340,98274,49500,,IMU->,0,-64,2057,2057,
19958,1422,1292,1771,1466,49500,65340,98274,49500,,IMU->,2,-69,2045,2046,
19958,1429,1283,1691,1485,49500,65340,98274,49500,,IMU->,5,-60,2047,2047,
19958,1431,1264,1606,1471,49500,65340,98274,49500,,IMU->,5,-58,2045,2045,
19958,1420,1227,1533,1472,49500,65340,98274,49500,,IMU->,4,-59,2056,2056,
19958,1431,1225,1476,1487,49500,65340,98274,49500,,IMU->,6,-67,2050,2051,
19958,1426,1211,1401,1466,49500,65340,98274,49500,,IMU->,7,-70,2052,2053,
19958,1416,1171,1331,1477,49500,65340,98274,49500,,IMU->,6,-68,2051,2052,
20324,1427,1182,1282,1473,49500,65340,98274,49500,,IMU->,6,-65,2049,2050,
19958,1426,1147,1246,1462,49500,65340,98274,49500,,IMU->,2,-64,2048,2049,
19958,1426,1140,1193,1480,49500,65340,98274,49500,,IMU->,5,-68,2047,2048,
19958,1437,1142,1169,1475,49500,65340,98274,49500,,IMU->,1,-65,2046,2047,
19958,1425,1126,1153,1466,49500,65340,98274,49500,,IMU->,7,-52,2050,2050,
19958,1415,1131,1143,1473,49500,65340,98274,49500,,IMU->,1,-66,2046,2047,
19958,1422,1112,1124,1469,49500,65340,98274,49500,,IMU->,3,-60,2050,2050,
19958,1414,1106,1092,1473,49500,65340,98274,49500,,IMU->,2,-64,2054,2054,
20324,1428,1118,1088,1474,49500,65340,98274,49500,,IMU->,4,-62,2050,2050,
19958,1437,1106,1066,1479,49500,65340,98274,49500,,IMU->,4,-58,2050,2050,
19958,1420,1093,1026,1477,49500,65340,98274,49500,,IMU->,2,-69,2052,2053,
19958,1439,1088,986,1477,49500,65340,98274,49500,,IMU->,2,-76,2049,2050,
19958,1424,1072,938,1464,49500,65340,98274,49500,,IMU->,3,-76,2050,2051,
19958,1417,1051,908,1467,49500,65340,98274,49500,,IMU->,1,-79,2046,2047,
19958,1417,1054,867,1463,49500,65340,98274,49500,,IMU->,14,-45,2055,2055,
19958,1410,1033,803,1462,49500,65340,98274,49500,,IMU->,1,-66,2053,2054,
19958,1414,1014,755,1477,49500,65340,98274,49500,,IMU->,-1,-75,2049,2050,
19989,1438,1011,688,1481,49500,65340,98274,49500,,IMU->,8,-58,2047,2047,
20324,1419,980,630,1463,49500,65340,98274,49500,,IMU->,9,-48,2045,2045,
19958,1426,973,592,1475,49500,65340,98274,49500,,IMU->,8,-61,2054,2054,
19958,1425,983,599,1470,49500,65340,98274,49500,,IMU->,-1,-79,2050,2051,
19989,1413,996,758,1461,49500,65340,98274,49500,,IMU->,8,-55,2049,2049,
19958,1419,1101,1167,1483,49500,65340,98274,49500,,IMU->,2,-65,2054,2055,
19958,1435,1233,1705,1476,49500,65340,98274,49500,,IMU->,0,-77,2056,2057,
19958,1434,1354,2183,1481,49500,65340,98274,49500,,IMU->,3,-69,2051,2052,
19958,1428,1442,2463,1486,49500,65340,98274,49500,,IMU->,21,-44,2044,2044,
19989,1420,1476,2584,1480,49500,65340,98274,49500,,IMU->,13,-51,2052,2052,
19958,1436,1488,2561,1486,49500,65340,98274,49500,,IMU->,7,-71,2026,2027,
20324,1441,1465,2454,1477,49500,65340,98274,49500,,IMU->,-7,-88,2047,2048,
19989,1437,1409,2293,1490,49500,65340,98274,49500,,IMU->,4,-61,2048,2048,
19958,1444,1385,2092,1492,49500,65340,98274,49500,,IMU->,11,-45,2053,2053,
19958,1444,1324,1904,1480,49500,65340,98274,49500,,IMU->,20,-35,2048,2048,
19989,1432,1271,1711,1485,49500,65340,98274,49500,,IMU->,2,-71,2049,2050,
19958,1433,1232,1550,1477,49500,65340,98274,49500,,IMU->,-8,-89,2052,2053,
19989,1433,1202,1444,1471,49500,65340,98274,49500,,IMU->,1,-75,2052,2053,
19958,1419,1185,1397,1473,49500,65340,98274,49500,,IMU->,3,-61,2049,2049,
19958,1432,1196,1436,1483,49500,65340,98274,49500,,IMU->,11,-58,2051,2051,
19989,1439,1218,1492,1482,49500,65340,98274,49500,,IMU->,0,-75,2048,2049,
19958,1421,1232,1606,1479,49500,65340,98274,49500,,IMU->,4,-69,2047,2048,
20324,1432,1262,1731,1480,49500,65340,98274,49500,,IMU->,4,-66,2049,2050,
19958,1421,1295,1809,1469,49500,65340,98274,49500,,IMU->,11,-46,2049,2049,
19989,1427,1300,1842,1477,49500,65340,98274,49500,,IMU->,4,-63,2051,2051,
19958,1440,1309,1820,1490,49500,65340,98274,49500,,IMU->,-7,-82,2049,2050,
19989,1426,1294,1767,1486,49500,65340,98274,49500,,IMU->,4,-66,2047,2048,
19958,1438,1274,1688,1487,49500,65340,98274,49500,,IMU->,10,-57,2048,2048,
19989,1433,1253,1589,1475,49500,65340,98274,49500,,IMU->,5,-63,2051,2051,
19958,1422,1210,1499,1469,49500,65340,98274,49500,,IMU->,0,-78,2047,2048,
19958,1421,1197,1408,1476,49500,65340,98274,49500,,IMU->,7,-63,2050,2050,
19958,1430,1178,1336,1470,49500,65340,98274,49500,,IMU->,16,-56,2048,2048,
19989,1434,1155,1278,1481,49500,65340,98274,49500,,IMU->,9,-55,2051,2051,
20324,1437,1165,1224,1483,49500,65340,98274,49500,,IMU->,-6,-82,2049,2050,
19958,1434,1134,1186,1471,49500,65340,98274,49500,,IMU->,4,-66,2049,2050,
19958,1430,1125,1144,1482,49500,65340,98274,49500,,IMU->,5,-62,2047,2047,
19958,1430,1127,1130,1471,49500,65307,98010,49500,,IMU->,8,-59,2049,2049,
19958,1421,1116,822,1469,49500,65307,98010,49500,,IMU->,7,-57,2052,2052,
19958,1423,1124,809,1472,49500,65307,98010,49500,,IMU->,5,-60,2043,2043,
19958,1430,1121,814,1470,49500,65307,98010,49500,,IMU->,-3,-67,2052,2053,
19958,1427,1117,783,1485,49500,65307,98010,49500,,IMU->,3,-63,2047,2047,
19958,1421,1111,780,1474,49500,65307,98010,49500,,IMU->,10,-54,2050,2050,
20355,1428,1102,751,1469,49500,65307,98010,49500,,IMU->,12,-53,2049,2049,
19958,1417,1097,719,1469,49500,65307,98010,49500,,IMU->,-6,-91,2054,2056,
19989,1427,1084,693,1466,49500,65307,98010,49500,,IMU->,-4,-89,2053,2054,
19989,1429,1085,672,1485,49500,65307,98010,49500,,IMU->,5,-67,2045,2046,
19958,1423,1091,682,1472,49500,65307,98010,49500,,IMU->,14,-48,2044,2044,
19989,1427,1098,795,1477,49500,65307,98010,49500,,IMU->,12,-55,2042,2042,
19958,1424,1168,1075,1475,49500,65307,98010,49500,,IMU->,7,-51,2056,2056,
19958,1427,1260,1488,1469,49500,65307,98010,49500,,IMU->,2,-72,2051,2052,
19958,1432,1357,1872,1483,49500,65307,98010,49500,,IMU->,0,-68,2047,2048,
19958,1429,1428,2116,1480,49500,65307,98010,49500,,IMU->,3,-61,2053,2053,
19958,1439,1464,2214,1498,49500,65307,98010,49500,,IMU->,7,-60,2046,2046,
20324,1432,1468,2148,1489,49500,65307,98010,49500,,IMU->,6,-60,2050,2050,
19989,1439,1430,2015,1476,49500,65307,98010,49500,,IMU->,-3,-71,2052,2053,
19958,1438,1380,1824,1484,49500,65307,98010,49500,,IMU->,3,-66,2049,2050,
19958,1440,1329,1644,1473,49500,65307,98010,49500,,IMU->,4,-64,2050,2051,
19958,1434,1281,1466,1483,49500,65307,98010,49500,,IMU->,3,-62,2049,2049,
19958,1430,1251,1276,1477,49500,65307,98010,49500,,IMU->,7,-68,2047,2048,
19958,1428,1194,1123,1473,49500,65307,98010,49500,,IMU->,2,-67,2050,2051,
19958,1422,1166,1007,1484,49500,65307,98010,49500,,IMU->,3,-67,2050,2051,
19958,1426,1155,993,1468,49500,65307,98010,49500,,IMU->,11,-57,2043,2043,
19989,1435,1156,1035,1472,49500,65307,98010,49500,,IMU->,1,-66,2052,2053,
20324,1419,1185,1110,1470,49500,65307,98010,49500,,IMU->,7,-64,2052,2053,
19958,1424,1213,1242,1469,49500,65307,98010,49500,,IMU->,3,-57,2059,2059,
19958,1436,1253,1346,1486,49500,65307,98010,49500,,IMU->,19,-53,2002,2002,
19989,1424,1278,1417,1476,49500,65307,98010,49500,,IMU->,5,-60,2050,2050,
19958,1428,1279,1443,1483,49500,65307,98010,49500,,IMU->,10,-56,2052,2052,
19989,1432,1282,1410,1473,49500,65307,98010,49500,,IMU->,12,-69,2048,2049,
19958,1425,1258,1333,1464,49500,65307,98010,49500,,IMU->,27,-78,2049,2050,
19958,1420,1234,1260,1477,49500,65307,98010,49500,,IMU->,7,-78,2041,2042,
19958,1424,1216,1172,1475,49500,65307,98010,49500,,IMU->,14,-79,2049,2050,
19989,1425,1194,1082,1469,49500,65307,98010,49500,,IMU->,21,-69,2050,2051,
19989,1422,1170,992,1477,49500,65307,98010,49500,,IMU->,3,-62,2049,2049,
20324,1429,1147,931,1475,49500,65307,98010,49500,,IMU->,3,-59,2044,2044,
19958,1429,1135,860,1468,49500,65307,98010,49500,,IMU->,10,-85,2049,2050,
19989,1422,1119,809,1474,49500,65307,98010,49500,,IMU->,31,-72,2055,2056,
19989,1424,1103,780,1471,49500,65307,98010,49500,,IMU->,19,-69,2051,2052,
19958,1417,1098,737,1471,49500,65307,98010,49500,,IMU->,12,-72,2049,2050,
19989,1432,1089,717,1467,49500,65307,98010,49500,,IMU->,12,-77,2049,2050,
19958,1419,1074,671,1468,49500,65307,98010,49500,,IMU->,24,-71,2058,2059,
19989,1413,1074,669,1467,49500,65307,98010,49500,,IMU->,26,-77,2054,2055,
19958,1427,1074,667,1470,49500,65307,98010,49500,,IMU->,23,-72,2043,2044,
19958,1417,1076,662,1468,49500,65307,98010,49500,,IMU->,33,-64,2047,2048,
19989,1416,1073,649,1472,49500,65307,98010,49500,,IMU->,38,-50,2050,2050,
19958,1420,1070,621,1472,49500,65307,98010,49500,,IMU->,28,-58,2057,2058,
19989,1423,1062,601,1460,49500,65307,98010,49500,,IMU->,14,-71,2051,2052,
20324,1422,1058,596,1469,49500,65307,98010,49500,,IMU->,0,-82,2045,2046,
19958,1414,1064,582,1461,49500,65307,98010,49500,,IMU->,0,-85,2052,2053,
19958,1416,1062,664,1457,49500,65307,98010,49500,,IMU->,13,-49,2055,2055,
19989,1427,1140,980,1473,49500,65307,98010,49500,,IMU->,32,-65,2050,2051,
19958,1420,1262,1440,1468,49500,65307,98010,49500,,IMU->,14,-71,2047,2048,
19989,1419,1362,1905,1472,49500,65307,98010,49500,,IMU->,-7,-85,2044,2045,
19989,1420,1455,2203,1475,49500,65307,98010,49500,,IMU->,0,-84,2055,2056,
19958,1417,1490,2341,1463,49500,65307,98010,49500,,IMU->,25,-72,2051,2052,
19989,1425,1507,2342,1487,49500,65307,98010,49500,,IMU->,21,-67,2048,2049,
19958,1430,1490,2238,1476,49500,65307,98010,49500,,IMU->,29,-63,2044,2045,
19989,1428,1435,2064,1478,49500,65307,98010,49500,,IMU->,5,-80,2049,2050,
19958,1420,1400,1868,1484,49500,65307,98010,49500,,IMU->,-3,-81,2051,2052,
19989,1434,1352,1725,1476,49500,65307,98010,49500,,IMU->,0,-63,2047,2047,
20324,1430,1304,1534,1477,49500,65307,98010,49500,,IMU->,0,-67,2044,2045,
19958,1426,1260,1378,1480,49500,65307,98010,49500,,IMU->,5,-69,2049,2050,
19958,1432,1208,1250,1476,49500,65307,98010,49500,,IMU->,17,-69,2062,2063,
19989,1425,1195,1191,1478,49500,65307,98010,49500,,IMU->,22,-76,2038,2039,
19958,1430,1203,1213,1472,49500,65307,98010,49500,,IMU->,36,-78,2042,2043,
19989,1426,1220,1278,1475,49500,65307,98010,49500,,IMU->,39,-81,2043,2044,
19989,1421,1248,1401,1482,49500,65307,98010,49500,,IMU->,29,-54,2054,2054,
19989,1440,1280,1511,1483,49500,65307,98010,49500,,IMU->,65,-70,2037,2039,
19958,1426,1295,1569,1481,49500,65307,98010,49500,,IMU->,2,-73,2105,2106,
19958,1432,1296,1598,1485,49500,65307,98010,49500,,IMU->,-9,-81,2053,2054,
19989,1441,1312,1584,1492,49500,65307,98010,49500,,IMU->,-28,-67,2047,2048,
19958,1418,1292,1526,1472,49500,65307,98010,49500,,IMU->,16,-78,2049,2050,
20355,1433,1257,1482,1483,49500,65307,98010,49500,,IMU->,-15,-46,2055,2055,
19989,1421,1268,1397,1479,49500,65307,98010,49500,,IMU->,41,-90,2041,2043,
19927,1420,1222,1312,1470,49500,65307,98010,49500,,IMU->,-53,-48,2050,2051,
19958,1433,1197,1234,1488,49500,65307,98010,49500,,IMU->,-65,-46,2037,2038,
19989,1438,1174,1140,1481,49500,65307,98010,49500,,IMU->,10,-64,2024,2025,
19958,1433,1143,1081,1481,49500,65307,98010,49500,,IMU->,-96,-47,2090,2092,
19989,1432,1133,1004,1480,49500,65307,98010,49500,,IMU->,53,-80,2034,2036,
19958,1421,1109,977,1458,49500,65307,98010,49500,,IMU->,-85,-20,2036,2037,
19958,1418,1101,929,1480,49500,65307,98010,49500,,IMU->,-98,-40,2051,2053,
19989,1416,1111,914,1469,49500,65307,98010,49500,,IMU->,-70,-58,2047,2049,
19989,1419,1101,901,1472,49500,65307,98010,49500,,IMU->,-12,-72,2035,2036,
19989,1409,1120,884,1484,49500,65307,98010,49500,,IMU->,-8,-79,2056,2057,
20324,1431,1118,889,1464,49500,65307,98010,49500,,IMU->,2,-72,2044,2045,
19958,1412,1105,868,1470,49500,65307,98010,49500,,IMU->,5,-75,2032,2033,
19927,1427,1097,852,1470,49500,65307,98010,49500,,IMU->,-5,-72,2056,2057,
19989,1424,1087,834,1463,49500,65307,98010,49500,,IMU->,1,-74,2043,2044,
19958,1413,1090,812,1471,49500,65307,98010,49500,,IMU->,1,-75,2053,2054,
19958,1430,1104,831,1478,49500,65307,98010,49500,,IMU->,-5,-69,2055,2056,
19989,1443,1122,817,1475,49500,65307,98010,49500,,IMU->,3,-79,2048,2049,
19958,1417,1118,806,1466,49500,65307,98010,49500,,IMU->,0,-80,2052,2053,
19958,1429,1113,806,1476,49500,65307,98010,49500,,IMU->,6,-71,2052,2053,
19958,1408,1103,768,1463,49500,65307,98010,49500,,IMU->,7,-62,2053,2053,
20324,1417,1082,722,1463,49500,65307,98010,49500,,IMU->,-11,-85,2053,2054,
19927,1425,1078,675,1471,49500,65307,98010,49500,,IMU->,0,-70,2048,2049,
19958,1416,1067,640,1467,49500,65307,98010,49500,,IMU->,0,-45,2043,2043,
19958,1425,1063,650,1468,49500,65307,98010,49500,,IMU->,8,-63,2057,2057,
19958,1425,1099,746,1468,49500,65307,98010,49500,,IMU->,0,-71,2050,2051,
19958,1407,1167,1110,1458,49500,65307,98010,49500,,IMU->,2,-69,2047,2048,
19958,1417,1301,1634,1475,49500,65307,98010,49500,,IMU->,8,-69,2050,2051,
20324,1429,1434,2138,1470,49500,65307,98010,49500,,IMU->,-1,-70,2054,2055,
19989,1430,1509,2458,1474,49500,65307,98010,49500,,IMU->,0,-77,2054,2055,
19958,1435,1571,2597,1488,49500,65307,98010,49500,,IMU->,-12,-90,2045,2047,
19958,1431,1572,2598,1462,49500,65307,98010,49500,,IMU->,-16,-85,2045,2046,
19989,1432,1550,2527,1479,49500,65307,98010,49500,,IMU->,-27,-74,2060,2061,
19989,1434,1527,2369,1478,49500,65307,98010,49500,,IMU->,-22,-75,2043,2044,
19989,1421,1467,2194,1466,49500,65307,98010,49500,,IMU->,-14,-60,2050,2050,
19989,1424,1438,2039,1482,49500,65307,98010,49500,,IMU->,-10,-59,2052,2052,
19958,1431,1412,1901,1467,49500,65307,98010,49500,,IMU->,-27,-79,2056,2057,
19958,1420,1359,1736,1470,49500,65307,98010,49500,,IMU->,-33,-91,2055,2057,
19989,1421,1326,1611,1475,49500,65307,98010,49500,,IMU->,-14,-52,2050,2050,
19958,1424,1300,1538,1464,49500,65307,98010,49500,,IMU->,-18,-28,2044,2044,
19989,1405,1291,1507,1464,49500,65307,98010,49500,,IMU->,-25,-31,2054,2054,
19958,1415,1308,1565,1467,49500,65307,98010,49500,,IMU->,-30,-42,2052,2052,
20324,1433,1331,1622,1470,49500,65307,98010,49500,,IMU->,-21,-28,2043,2043,
19989,1422,1351,1704,1472,49500,65307,98010,49500,,IMU->,-42,-29,2054,2054,
19989,1430,1361,1813,1476,49500,65307,98010,49500,,IMU->,-46,-45,2046,2047,
19927,1423,1395,1840,1474,49500,65307,98010,49500,,IMU->,-34,-67,2058,2059,
19989,1421,1394,1856,1464,49500,65307,98010,49500,,IMU->,-20,-52,2044,2044,
19989,1428,1390,1811,1475,49500,65307,98010,49500,,IMU->,-41,-46,2049,2049,
19989,1418,1376,1745,1471,49500,65307,98010,49500,,IMU->,-45,-59,2047,2048,
19958,1430,1356,1682,1477,49500,65307,98010,49500,,IMU->,-26,-65,2045,2046,
19958,1428,1340,1595,1480,49500,65307,98010,49500,,IMU->,-15,-70,2045,2046,
19989,1419,1307,1518,1466,49500,65307,98010,49500,,IMU->,8,-76,2052,2053,
19958,1430,1291,1418,1479,49500,65307,98010,49500,,IMU->,16,-73,2051,2052,
19958,1418,1277,1344,1469,49500,65307,98010,49500,,IMU->,41,-80,2052,2053,
19989,1422,1235,1281,1470,49500,65307,98010,49500,,IMU->,36,-74,2052,2053,
20355,1429,1250,1224,1485,49500,65307,98010,49500,,IMU->,22,-81,2056,2057,
19989,1424,1232,1166,1467,49500,65307,98010,49500,,IMU->,-5,-85,2047,2048,
19958,1425,1200,1130,1486,49500,65307,98010,49500,,IMU->,-9,-84,2044,2045,
19927,1442,1221,1099,1487,49500,65307,98010,49500,,IMU->,32,-68,2045,2046,
19989,1436,1200,1066,1480,49500,65307,98010,49500,,IMU->,10,-47,2054,2054,
19958,1426,1194,1037,1480,49500,65307,98010,49500,,IMU->,-27,-48,2047,2047,
19958,1434,1179,1036,1476,49500,65307,98010,49500,,IMU->,-22,-77,2042,2043,
19989,1434,1191,1046,1481,49500,65307,98010,49500,,IMU->,-3,-64,2047,2048,
19958,1425,1198,1051,1483,49500,65307,98010,49500,,IMU->,11,-50,2047,2047,
19989,1431,1185,1049,1477,49500,65307,98010,49500,,IMU->,-10,-86,2043,2044,
19989,1416,1182,1020,1488,49500,65307,98010,49500,,IMU->,-44,-79,2061,2062,
19989,1422,1178,1009,1481,49500,65307,98010,49500,,IMU->,19,-75,2052,2053,
20324,1442,1187,985,1482,49500,65307,98010,49500,,IMU->,64,-95,2054,2057,
19958,1432,1178,954,1487,49500,65307,98010,49500,,IMU->,104,-116,2049,2054,
19989,1442,1163,903,1484,49500,65307,98010,49500,,IMU->,128,-117,2056,2063,
19989,1427,1155,844,1483,49500,65307,98010,49500,,IMU->,107,-117,2051,2057,
19927,1427,1145,783,1477,49500,65307,98010,49500,,IMU->,94,-127,2052,2058,
19989,1436,1131,729,1478,49500,65307,98010,49500,,IMU->,26,-84,2050,2051,
19958,1419,1107,709,1469,49500,65208,97878,49500,,IMU->,7,-74,2049,2050,
19958,1427,995,738,1475,49500,65208,97878,49500,,IMU->,8,-69,2049,2050,
19958,1429,1102,1091,1491,49500,65208,97878,49500,,IMU->,9,-67,2048,2049,
19958,1423,1204,1573,1477,49500,65208,97878,49500,,IMU->,5,-65,2049,2050,
20324,1437,1322,2015,1492,49500,65208,97878,49500,,IMU->,0,-72,2055,2056,
19958,1438,1410,2296,1492,49500,65208,97878,49500,,IMU->,0,-61,2053,2053,
19958,1438,1428,2419,1480,49500,65208,97878,49500,,IMU->,19,-26,2026,2026,
19958,1435,1445,2407,1491,49500,65208,97878,49500,,IMU->,-5,-75,2051,2052,
19958,1433,1419,2308,1480,49500,65208,97878,49500,,IMU->,8,-69,2049,2050,
19958,1442,1381,2148,1486,49500,65208,97878,49500,,IMU->,-1,-74,2051,2052,
19989,1437,1345,1964,1486,49500,65208,97878,49500,,IMU->,1,-76,2052,2053,
19958,1434,1294,1811,1483,49500,65208,97878,49500,,IMU->,-11,-92,2052,2054,
19958,1430,1250,1620,1482,49500,65208,97878,49500,,IMU->,7,-76,2057,2058,
19958,1420,1204,1461,1464,49500,65208,97878,49500,,IMU->,9,-81,2053,2054,
20324,1434,1168,1360,1477,49500,65208,97878,49500,,IMU->,16,-100,2042,2044,
20019,1425,1162,1306,1480,49500,65208,97878,49500,,IMU->,44,-82,2044,2046,
19989,1428,1166,1348,1472,49500,65208,97878,49500,,IMU->,32,-82,2061,2062,
19958,1422,1179,1398,1479,49500,65208,97878,49500,,IMU->,68,-63,2050,2052,
19989,1424,1215,1519,1475,49500,65208,97878,49500,,IMU->,76,-62,2042,2044,
19927,1432,1237,1602,1480,49500,65208,97878,49500,,IMU->,36,-78,2047,2048,
19989,1429,1262,1679,1480,49500,65208,97878,49500,,IMU->,10,-92,2050,2052,
19989,1427,1262,1739,1465,49500,65208,97878,49500,,IMU->,18,-65,2063,2064,
19989,1426,1270,1725,1478,49500,65208,97878,49500,,IMU->,20,-73,2049,2050,
19989,1417,1269,1704,1462,49500,65208,97878,49500,,IMU->,30,-61,2050,2051,
19989,1427,1244,1635,1473,49500,65208,97878,49500,,IMU->,20,-73,2042,2043,
19989,1421,1216,1529,1472,49500,65208,97878,49500,,IMU->,38,-75,2051,2052,
19989,1418,1169,1435,1471,49500,65208,97878,49500,,IMU->,31,-48,2077,2077,
19958,1426,1157,1329,1480,49500,65208,97878,49500,,IMU->,7,-39,2044,2044,
19958,1426,1140,1245,1472,49500,65208,97878,49500,,IMU->,16,-74,2046,2047,
19989,1430,1101,1140,1474,49500,65208,97878,49500,,IMU->,33,-61,2052,2053,
20324,1418,1079,1052,1469,49500,65208,97878,49500,,IMU->,31,-72,2055,2056,
19958,1420,1055,1024,1467,49500,65208,97878,49500,,IMU->,29,-100,2048,2050,
19989,1421,1063,993,1471,49500,65208,97878,49500,,IMU->,13,-93,2049,2051,
19989,1420,1061,985,1465,49500,65208,97878,49500,,IMU->,37,-95,2045,2047,
19989,1423,1056,964,1472,49500,65208,97878,49500,,IMU->,60,-95,2047,2050,
19927,1425,1055,957,1468,49500,65208,97878,49500,,IMU->,58,-105,2062,2065,
19958,1418,1048,955,1470,49500,65208,97878,49500,,IMU->,55,-79,2052,2054,
19989,1415,1058,933,1470,49500,65208,97878,49500,,IMU->,36,-85,2033,2035,
19958,1409,1037,902,1453,49500,65208,97878,49500,,IMU->,49,-100,2041,2044,
19958,1414,1031,878,1465,49500,65208,97878,49500,,IMU->,49,-102,2071,2074,
19989,1425,1041,871,1466,49500,65208,97878,49500,,IMU->,84,-102,2054,2058,
20324,1416,1027,894,1455,49500,65208,97878,49500,,IMU->,77,-67,2021,2023,
19958,1415,1065,1015,1464,49500,65208,97878,49500,,IMU->,10,-71,2037,2038,
19989,1411,1128,1327,1456,49500,65208,97878,49500,,IMU->,-13,-80,2075,2076,
19989,1414,1214,1729,1469,49500,65208,97878,49500,,IMU->,-47,-68,2076,2077,
19989,1417,1335,2158,1470,49500,65208,97878,49500,,IMU->,-77,-32,2039,2040,
19989,1419,1406,2461,1466,49500,65208,97878,49500,,IMU->,-140,-10,2034,2038,
19989,1421,1459,2613,1480,49500,65208,97878,49500,,IMU->,-161,2,2060,2066,
19927,1424,1470,2620,1457,49500,65208,97878,49500,,IMU->,-165,7,2035,2041,
19958,1417,1435,2534,1466,49500,65208,97878,49500,,IMU->,-213,-9,2018,2029,
19989,1419,1399,2356,1474,49500,65208,97878,49500,,IMU->,-177,-25,2041,2048,
19958,1417,1335,2151,1462,49500,65208,97878,49500,,IMU->,-72,-56,2083,2084,
19989,1404,1295,1925,1460,49500,65208,97878,49500,,IMU->,-9,-46,2047,2047,
19989,1413,1269,1743,1464,49500,65208,97878,49500,,IMU->,-4,-53,2051,2051,
19989,1426,1210,1542,1460,49500,65208,97878,49500,,IMU->,0,-63,2052,2052,
20324,1408,1171,1391,1457,49500,65208,97878,49500,,IMU->,-3,-86,2050,2051,
19989,1415,1158,1361,1457,49500,65208,97878,49500,,IMU->,-13,-116,2045,2048,
19989,1408,1164,1358,1458,49500,65208,97878,49500,,IMU->,-15,-107,2053,2055,
19989,1407,1178,1441,1452,49500,65208,97878,49500,,IMU->,-1,-69,2055,2056,
19927,1413,1210,1538,1464,49500,65208,97878,49500,,IMU->,0,-56,2050,2050,
19927,1425,1243,1639,1467,49500,65208,97878,49500,,IMU->,-22,-68,2050,2051,
19989,1420,1260,1731,1463,49500,65208,97878,49500,,IMU->,-91,-61,2051,2053,
19958,1412,1274,1774,1461,49500,65208,97878,49500,,IMU->,-93,-62,2051,2054,
19989,1403,1265,1785,1447,49500,65208,97878,49500,,IMU->,-76,-54,2046,2048,
19958,1412,1240,1741,1455,49500,65208,97878,49500,,IMU->,-82,-39,2054,2056,
19989,1399,1232,1664,1454,49500,65208,97878,49500,,IMU->,-99,-35,2047,2049,
19989,1402,1196,1577,1465,49500,65208,97878,49500,,IMU->,-77,-2,2054,2055,
19989,1430,1191,1507,1477,49500,65208,97878,49500,,IMU->,-98,-9,2052,2054,
19989,1419,1165,1418,1457,49500,65208,97878,49500,,IMU->,-90,-25,2045,2047,
20355,1419,1133,1348,1466,49500,65208,97878,49500,,IMU->,-99,-54,2043,2046,
19989,1419,1129,1268,1468,49500,65208,97878,49500,,IMU->,-63,-46,2042,2043,
19958,1410,1103,1232,1455,49500,65208,97878,49500,,IMU->,-78,-38,2050,2051,
19927,1423,1105,1177,1472,49500,65208,97878,49500,,IMU->,-56,-84,2046,2048,
19989,1424,1103,1159,1459,49500,65208,97878,49500,,IMU->,-9,-63,2051,2051,
19927,1419,1096,1131,1463,49500,65208,97878,49500,,IMU->,46,-73,2046,2047,
19958,1419,1102,1128,1475,49500,65208,97878,49500,,IMU->,27,-91,2053,2055,
19989,1427,1101,1115,1463,49500,65208,97878,49500,,IMU->,-29,-92,2052,2054,
19958,1404,1080,1062,1469,49500,65208,97878,49500,,IMU->,-3,-90,2048,2049,
19989,1402,1078,1054,1474,49500,65208,97878,49500,,IMU->,46,-73,2048,2049,
19989,1433,1084,1042,1475,49500,65208,97878,49500,,IMU->,96,-99,2052,2056,
19989,1424,1086,1006,1485,49500,65208,97878,49500,,IMU->,82,-93,2048,2051,
20324,1434,1071,976,1475,49500,65208,97878,49500,,IMU->,95,-129,2048,2054,
19989,1424,1064,931,1466,49500,65208,97878,49500,,IMU->,171,-171,2050,2064,
19989,1420,1070,923,1459,49500,65208,97878,49500,,IMU->,253,-168,2051,2073,
19989,1422,1080,928,1460,49500,65208,97878,49500,,IMU->,249,-153,2049,2069,
19958,1412,1105,970,1453,49500,65208,97878,49500,,IMU->,101,-150,2049,2056,
19989,1417,1131,1210,1477,49500,65208,97878,49500,,IMU->,10,-81,2046,2047,
19989,1423,1245,1682,1479,49500,65208,97878,49500,,IMU->,-2,-77,2050,2051,
19989,1415,1375,2196,1467,49500,65208,97878,49500,,IMU->,1,-74,2049,2050,
19927,1428,1465,2559,1478,49500,65208,97878,49500,,IMU->,4,-72,2049,2050,
19958,1423,1524,2724,1464,49500,65208,97878,49500,,IMU->,9,-70,2047,2048,
19958,1424,1532,2785,1476,49500,65208,97878,49500,,IMU->,-1,-68,2049,2050,
19989,1433,1547,2751,1489,49500,65208,97878,49500,,IMU->,1,-69,2047,2048,
20324,1432,1520,2627,1468,49500,65208,97878,49500,,IMU->,-3,-68,2053,2054,
19989,1435,1471,2480,1481,49500,65208,97878,49500,,IMU->,3,-54,2048,2048,
19958,1434,1447,2334,1481,49500,65208,97878,49500,,IMU->,-10,-79,2045,2046,
19958,1421,1388,2181,1460,49500,65208,97878,49500,,IMU->,2,-70,2049,2050,
19958,1417,1360,2044,1475,49500,65208,97878,49500,,IMU->,9,-56,2050,2050,
19958,1422,1341,1963,1466,49500,65208,97878,49500,,IMU->,13,-46,2053,2053,
19958,1424,1329,1903,1466,49500,65208,97878,49500,,IMU->,-4,-94,2046,2048,
19989,1426,1330,1918,1477,49500,65208,97878,49500,,IMU->,14,-107,2046,2048,
19958,1432,1344,1976,1474,49500,65208,97878,49500,,IMU->,7,-94,2052,2054,
19958,1419,1360,2042,1485,49500,65208,97878,49500,,IMU->,8,-100,2052,2054,
19989,1426,1386,2148,1461,49500,65208,97878,49500,,IMU->,50,-85,2053,2055,
19989,1428,1405,2206,1465,49500,65208,97878,49500,,IMU->,37,-83,2048,2050,
19989,1417,1413,2240,1475,49500,65208,97878,49500,,IMU->,29,-57,2048,2048,
20355,1434,1415,2247,1473,49500,65208,97878,49500,,IMU->,27,-73,2052,2053,
19989,1428,1412,2216,1473,49500,65208,97878,49500,,IMU->,47,-76,2052,2053,
19958,1423,1404,2166,1477,49500,65208,97878,49500,,IMU->,43,-74,2050,2051,
19989,1431,1369,2092,1477,49500,65208,97878,49500,,IMU->,2,-75,2048,2049,
19958,1412,1341,1997,1472,49500,65208,97878,49500,,IMU->,10,-94,2051,2053,
19958,1425,1323,1939,1474,49500,65208,97878,49500,,IMU->,26,-87,2051,2053,
19989,1432,1314,1853,1477,49500,65208,97878,49500,,IMU->,7,-80,2046,2047,
19927,1415,1282,1787,1464,49500,65208,97878,49500,,IMU->,-31,-63,2058,2059,
19958,1427,1260,1732,1481,49500,65208,97878,49500,,IMU->,-14,-78,2052,2053,
19989,1429,1259,1650,1473,49500,65208,97878,49500,,IMU->,0,-85,2051,2052,
19958,1407,1215,1603,1462,49500,65208,97878,49500,,IMU->,4,-76,2049,2050,
20324,1426,1217,1576,1479,49500,65208,97878,49500,,IMU->,21,-65,2049,2050,
19989,1419,1220,1567,1458,49500,65208,97878,49500,,IMU->,12,-65,2044,2045,
19989,1422,1206,1560,1473,49500,65208,97878,49500,,IMU->,0,-72,2048,2049,
19958,1425,1218,1555,1481,49500,65208,97878,49500,,IMU->,-10,-75,2050,2051,
19989,1425,1209,1552,1469,49500,65208,97878,49500,,IMU->,16,-90,2048,2050,
20019,1429,1220,1548,1473,49500,65208,97878,49500,,IMU->,9,-80,2050,2051,
19958,1422,1209,1538,1462,49500,65208,97878,49500,,IMU->,-5,-69,2044,2045,
19958,1417,1190,1511,1463,49500,65208,97878,49500,,IMU->,-20,-70,2046,2047,
19989,1428,1208,1504,1476,49500,65208,97878,49500,,IMU->,-30,-70,2058,2059,
19927,1428,1186,1490,1466,49500,65208,97878,49500,,IMU->,-4,-82,2048,2049,
19958,1407,1177,1435,1468,49500,65208,97878,49500,,IMU->,16,-88,2048,2049,
19989,1418,1172,1376,1469,49500,65208,97878,49500,,IMU->,25,-81,2046,2047,
19958,1423,1143,1315,1457,49500,65208,97878,49500,,IMU->,16,-63,2050,2051,
20324,1408,1147,1290,1467,49500,65208,97878,49500,,IMU->,11,-73,2048,2049,
19989,1425,1140,1333,1462,49500,65208,97878,49500,,IMU->,10,-91,2054,2056,
19989,1413,1179,1470,1466,49500,65208,97878,49500,,IMU->,7,-92,2049,2051,
19958,1414,1265,1867,1470,49500,65208,97878,49500,,IMU->,22,-85,2058,2059,
19989,1430,1403,2406,1473,49500,65208,97878,49500,,IMU->,21,-78,2053,2054,
19927,1420,1514,2826,1476,49500,65208,97878,49500,,IMU->,51,-87,2043,2045,
19927,1423,1590,2975,1468,49500,65208,97878,49500,,IMU->,57,-100,2054,2057,
19989,1422,1629,2978,1472,49500,65208,97878,49500,,IMU->,45,-74,2054,2055,
19958,1409,1634,2976,1461,49500,65208,97878,49500,,IMU->,40,-68,2047,2048,
20324,1418,1612,2981,1466,49500,65208,97878,49500,,IMU->,35,-97,2055,2057,
19958,1422,1593,2970,1469,49500,65208,97878,49500,,IMU->,29,-86,2058,2060,
19989,1415,1542,2836,1457,49500,65208,97878,49500,,IMU->,47,-89,2053,2055,
19958,1415,1505,2678,1472,49500,65208,97878,49500,,IMU->,26,-94,2052,2054,
19989,1411,1468,2516,1448,49500,65208,97878,49500,,IMU->,20,-96,2057,2059,
19989,1407,1420,2391,1445,49500,65208,97878,49500,,IMU->,-5,-81,2047,2048,
19927,1406,1401,2294,1455,49500,65208,97878,49500,,IMU->,-47,-71,2042,2043,
19989,1400,1373,2254,1444,49500,65208,97878,49500,,IMU->,-84,-47,2046,2048,
19927,1402,1377,2287,1457,49500,65208,97878,49500,,IMU->,-109,-19,2052,2054,
19958,1401,1401,2364,1447,49500,65208,97878,49500,,IMU->,-114,-7,2048,2051,
19989,1408,1398,2463,1448,49500,65208,97878,49500,,IMU->,-169,-22,2049,2056,
20324,1409,1431,2557,1463,49500,65076,97284,49500,,IMU->,-196,-51,2050,2059,
19989,1414,1446,2043,1456,49500,65076,97284,49500,,IMU->,-80,-85,2050,2053,
19989,1394,1456,2030,1453,49500,65076,97284,49500,,IMU->,-13,-72,2047,2048,
19958,1402,1479,1992,1450,49500,65076,97284,49500,,IMU->,-5,-75,2047,2048,
19958,1408,1444,1911,1451,49500,65076,97284,49500,,IMU->,-1,-76,2053,2054,
19989,1399,1419,1803,1453,49500,65076,97284,49500,,IMU->,1,-80,2050,2051,
19958,1415,1398,1744,1455,49500,65076,97284,49500,,IMU->,0,-80,2049,2050,
19958,1408,1383,1650,1458,49500,65076,97284,49500,,IMU->,6,-86,2049,2050,
19958,1399,1358,1563,1446,49500,65076,97284,49500,,IMU->,9,-85,2051,2052,
19958,1407,1328,1483,1446,49500,65076,97284,49500,,IMU->,8,-84,2052,2053,
19958,1388,1312,1397,1453,49500,65076,97284,49500,,IMU->,5,-89,2050,2051,
20324,1402,1291,1355,1440,49500,65076,97284,49500,,IMU->,2,-83,2051,2052,
19958,1396,1280,1311,1448,49500,65076,97284,49500,,IMU->,0,-78,2046,2047,
19958,1399,1283,1279,1450,49500,65076,97284,49500,,IMU->,-1,-76,2049,2050,
19958,1409,1269,1255,1454,49500,65076,97284,49500,,IMU->,-4,-79,2050,2051,
19989,1401,1265,1224,1450,49500,65076,97284,49500,,IMU->,-5,-78,2047,2048,
19958,1400,1255,1216,1443,49500,65076,97284,49500,,IMU->,-3,-76,2049,2050,
19989,1401,1259,1211,1450,49500,65076,97284,49500,,IMU->,0,-80,2052,2053,
19927,1393,1256,1202,1435,49500,65076,97284,49500,,IMU->,3,-82,2048,2049,
19958,1392,1247,1193,1439,49500,65076,97284,49500,,IMU->,0,-82,2049,2050,
20324,1402,1261,1187,1447,49500,65076,97284,49500,,IMU->,-2,-78,2051,2052,
19989,1403,1250,1192,1442,49500,65076,97284,49500,,IMU->,1,-81,2049,2050,
19958,1402,1257,1183,1455,49500,65076,97284,49500,,IMU->,1,-82,2047,2048,
19958,1398,1255,1158,1442,49500,65076,97284,49500,,IMU->,-3,-80,2051,2052,
19989,1392,1244,1139,1442,49500,65076,97284,49500,,IMU->,-6,-78,2049,2050,
19958,1393,1237,1099,1446,49500,65076,97284,49500,,IMU->,-7,-77,2047,2048,
19989,1399,1233,1073,1443,49500,65076,97284,49500,,IMU->,-4,-77,2047,2048,
19989,1403,1221,1022,1447,49500,65076,97284,49500,,IMU->,-4,-77,2047,2048,
19989,1391,1219,985,1439,49500,65076,97284,49500,,IMU->,0,-75,2048,2049,
19927,1400,1198,956,1438,49500,65076,97284,49500,,IMU->,2,-81,2051,2052,
19958,1393,1197,903,1448,49500,65076,97284,49500,,IMU->,7,-85,2051,2052,
20324,1391,1168,862,1434,49500,65076,97284,49500,,IMU->,9,-82,2047,2048,
19958,1393,1169,831,1443,49500,65076,97284,49500,,IMU->,6,-85,2044,2045,
19958,1398,1174,801,1443,49500,65076,97284,49500,,IMU->,0,-81,2048,2049,
19958,1410,1168,823,1446,49500,65076,97284,49500,,IMU->,1,-80,2052,2053,
19958,1399,1201,970,1449,49500,65076,97284,49500,,IMU->,-6,-81,2051,2052,
19989,1387,1283,1351,1438,49500,65076,97284,49500,,IMU->,-3,-74,2045,2046,
19958,1395,1403,1877,1448,49500,65076,97284,49500,,IMU->,-6,-77,2049,2050,
19927,1394,1530,2326,1447,49500,65076,97284,49500,,IMU->,-7,-77,2049,2050,
19989,1399,1593,2592,1455,49500,65076,97284,49500,,IMU->,-5,-79,2048,2049,
20324,1412,1644,2681,1467,49500,65076,97284,49500,,IMU->,-6,-80,2050,2051,
19989,1410,1641,2681,1461,49500,65076,97284,49500,,IMU->,1,-74,2052,2053,
19958,1420,1624,2588,1466,49500,65076,97284,49500,,IMU->,6,-80,2048,2049,
19958,1398,1588,2417,1451,49500,65076,97284,49500,,IMU->,3,-82,2051,2052,
19958,1403,1533,2250,1451,49500,65076,97284,49500,,IMU->,8,-81,2049,2050,
19958,1404,1502,2091,1464,49500,65076,97284,49500,,IMU->,0,-79,2049,2050,
19958,1407,1461,1943,1455,49500,65076,97284,49500,,IMU->,-2,-79,2050,2051,
19989,1410,1424,1817,1460,49500,65076,97284,49500,,IMU->,-14,-77,2049,2050,
19989,1411,1403,1725,1448,49500,65076,97284,49500,,IMU->,-32,-62,2055,2056,
19927,1408,1386,1706,1463,49500,65076,97284,49500,,IMU->,-15,-70,2052,2053,
20324,1403,1397,1735,1452,49500,65076,97284,49500,,IMU->,-20,-78,2047,2048,
19958,1392,1403,1829,1444,49500,65076,97284,49500,,IMU->,-21,-73,2052,2053,
19989,1408,1446,1939,1456,49500,65076,97284,49500,,IMU->,-23,-63,2046,2047,
19958,1398,1470,2040,1451,49500,65076,97284,49500,,IMU->,-10,-68,2050,2051,
19989,1409,1478,2093,1447,49500,65076,97284,49500,,IMU->,-13,-70,2048,2049,
19989,1417,1504,2110,1466,49500,65076,97284,49500,,IMU->,-26,-65,2048,2049,
19989,1410,1491,2078,1446,49500,65076,97284,49500,,IMU->,-29,-65,2046,2047,
19989,1404,1469,2014,1466,49500,65076,97284,49500,,IMU->,-23,-60,2044,2045,
19989,1405,1460,1940,1452,49500,65076,97284,49500,,IMU->,-34,-62,2050,2051,
19989,1403,1434,1865,1446,49500,65076,97284,49500,,IMU->,-44,-65,2045,2046,
19927,1402,1416,1790,1465,49500,65076,97284,49500,,IMU->,-33,-65,2051,2052,
19989,1408,1388,1697,1448,49500,65076,97284,49500,,IMU->,-57,-40,2048,2049,
19927,1402,1352,1611,1453,49500,65076,97284,49500,,IMU->,-77,-50,2051,2053,
20324,1405,1343,1549,1452,49500,65076,97284,49500,,IMU->,-65,-65,2045,2047,
19958,1406,1304,1492,1449,49500,65076,97284,49500,,IMU->,-59,-49,2045,2046,
19958,1405,1303,1439,1465,49500,65076,97284,49500,,IMU->,-79,-49,2042,2044,
19989,1415,1296,1416,1457,49500,65076,97284,49500,,IMU->,-101,-7,2048,2050,
19989,1413,1273,1371,1462,49500,65076,97284,49500,,IMU->,-77,-45,2037,2038,
19989,1423,1280,1358,1466,49500,65076,97284,49500,,IMU->,-85,-52,2050,2052,
19989,1424,1272,1351,1460,49500,65076,97284,49500,,IMU->,-125,-38,2041,2045,
19989,1406,1254,1299,1465,49500,65076,97284,49500,,IMU->,-112,-54,2042,2045,
19989,1412,1249,1311,1464,49500,65076,97284,49500,,IMU->,-111,-38,2058,2061,
19958,1425,1250,1295,1473,49500,65076,97284,49500,,IMU->,-96,-71,2048,2051,
19958,1410,1247,1276,1459,49500,65076,97284,49500,,IMU->,-40,-117,2041,2044,
19989,1417,1242,1271,1468,49500,65076,97284,49500,,IMU->,48,-196,2052,2061,
19927,1416,1262,1243,1470,49500,65076,97284,49500,,IMU->,161,-160,2040,2052,
20324,1403,1247,1186,1451,49500,65076,97284,49500,,IMU->,283,-143,2059,2083,
19958,1410,1247,1138,1459,49500,65076,97284,49500,,IMU->,392,-171,2050,2094,
19989,1400,1263,1063,1448,49500,65076,97284,49500,,IMU->,430,-210,2050,2105,
19958,1399,1242,940,1448,49500,65076,97284,49500,,IMU->,155,-170,2045,2057,
19989,1408,1162,700,1466,49500,65076,97284,49500,,IMU->,41,-114,2055,2058,
19989,1413,1091,623,1452,49500,65076,97284,49500,,IMU->,37,-111,2052,2055,
19989,1409,1106,675,1456,49500,65076,97284,49500,,IMU->,45,-138,2046,2051,
19989,1396,1151,843,1444,49500,65076,97284,49500,,IMU->,34,-171,2064,2071,
19989,1396,1228,1218,1436,49500,65076,97284,49500,,IMU->,167,-135,2054,2065,
19958,1396,1384,1685,1460,49500,65076,97284,49500,,IMU->,205,-128,2053,2067,
19989,1406,1504,2119,1451,49500,65076,97284,49500,,IMU->,214,-91,2051,2064,
19989,1396,1572,2408,1453,49500,65076,97284,49500,,IMU->,166,-48,2054,2061,
19989,1402,1618,2558,1458,49500,65076,97284,49500,,IMU->,141,-36,2049,2054,
19989,1407,1623,2575,1450,49500,65076,97284,49500,,IMU->,55,-116,2068,2071,
19989,1393,1613,2491,1465,49500,65076,97284,49500,,IMU->,121,-142,2057,2065,
19958,1406,1613,2416,1460,49500,65076,97284,49500,,IMU->,174,-139,2055,2067,
20324,1406,1582,2249,1440,49500,65076,97284,49500,,IMU->,192,-129,2048,2061,
19958,1399,1526,2071,1437,49500,65076,97284,49500,,IMU->,71,-113,2045,2049,
19989,1395,1463,1888,1437,49500,65076,97284,49500,,IMU->,22,-72,2051,2052,
19958,1385,1413,1700,1435,49500,65076,97284,49500,,IMU->,-80,-87,2049,2052,
19989,1376,1346,1585,1431,49500,65076,97284,49500,,IMU->,-427,-63,2031,2076,
19989,1394,1286,1539,1436,49500,65076,97284,49500,,IMU->,-431,-31,2054,2098,
19989,1384,1250,1537,1439,49500,65076,97284,49500,,IMU->,-544,74,2041,2113,
19958,1398,1236,1662,1447,49500,65076,97284,49500,,IMU->,-446,138,2050,2102,
19958,1404,1262,1689,1446,49500,65076,97284,49500,,IMU->,-67,-20,2055,2056,
19989,1383,1337,1767,1432,49500,65076,97284,49500,,IMU->,-37,-63,2046,2047,
19958,1393,1394,1848,1440,49500,65076,97284,49500,,IMU->,-36,-63,2041,2042,
19989,1387,1383,1809,1433,49500,65076,97284,49500,,IMU->,-97,2,2056,2058,
20294,1388,1334,1745,1441,49500,65076,97284,49500,,IMU->,-221,74,2043,2056,
19989,1404,1305,1652,1453,49500,65076,97284,49500,,IMU->,-247,-63,2026,2041,
19958,1395,1283,1598,1444,49500,65076,97284,49500,,IMU->,-336,-127,2030,2061,
19989,1401,1268,1531,1458,49500,65076,97284,49500,,IMU->,-275,-85,2068,2087,
19958,1409,1231,1425,1450,49500,65076,97284,49500,,IMU->,-236,-37,2069,2082,
19989,1393,1181,1309,1437,49500,65076,97284,49500,,IMU->,-106,-23,2043,2045,
19989,1401,1191,1252,1458,49500,65076,97284,49500,,IMU->,-111,63,2042,2045,
19989,1408,1206,1224,1447,49500,65076,97284,49500,,IMU->,-17,41,2061,2061,
19958,1393,1183,1166,1443,49500,65076,97284,49500,,IMU->,55,-35,2053,2054,
19958,1395,1207,1158,1449,49500,65076,97284,49500,,IMU->,-6,-17,2027,2027,
19989,1395,1203,1141,1443,49500,65076,97284,49500,,IMU->,166,-94,2043,2051,
19958,1388,1217,1133,1452,49500,65076,97284,49500,,IMU->,326,-149,2042,2073,
19989,1388,1222,1085,1443,49500,65076,97284,49500,,IMU->,346,-187,2069,2106,
19958,1392,1209,1006,1438,49500,65076,97284,49500,,IMU->,367,-244,2044,2090,
20355,1388,1213,955,1434,49500,65076,97284,49500,,IMU->,418,-320,2056,2122,
19989,1394,1204,887,1441,49500,65076,97284,49500,,IMU->,199,-218,2043,2064,
19989,1386,1109,649,1447,49500,65076,97284,49500,,IMU->,79,-57,2054,2056,
19989,1398,1034,613,1448,49500,65076,97284,49500,,IMU->,72,-10,2051,2052,
19958,1407,1057,631,1454,49500,65076,97284,49500,,IMU->,35,-67,2046,2047,
19989,1397,1061,634,1449,49500,65076,97284,49500,,IMU->,28,-137,2050,2054,
19989,1411,1047,632,1452,49500,65076,97284,49500,,IMU->,138,-211,2051,2066,
19989,1405,1082,674,1447,49500,65076,97284,49500,,IMU->,189,-147,2052,2065,
19989,1386,1095,659,1440,49500,65076,97284,49500,,IMU->,173,-77,2041,2049,
19989,1395,1086,619,1448,49500,65076,97284,49500,,IMU->,108,-96,2058,2063,
19958,1390,1066,587,1433,49500,65076,97284,49500,,IMU->,133,-140,2046,2055,
19958,1385,1068,608,1447,49500,65076,97284,49500,,IMU->,117,-158,2049,2058,
19989,1407,1089,592,1470,49500,65076,97284,49500,,IMU->,113,-154,2044,2052,
20019,1402,1081,556,1435,49500,65076,97284,49500,,IMU->,76,-150,2049,2055,
19989,1392,1041,497,1448,49500,65076,97284,49500,,IMU->,70,-198,2049,2059,
19927,1402,1037,441,1443,49500,65076,97284,49500,,IMU->,37,-133,2050,2054,
19989,1386,994,389,1420,49500,65076,97284,49500,,IMU->,65,-62,2070,2071,
20294,1380,987,382,1434,49500,65076,97284,49500,,IMU->,-33,-42,2039,2039,
19989,1395,1022,528,1433,49500,65076,97284,49500,,IMU->,-76,-54,2048,2050,
19989,1393,1100,930,1434,49500,65076,97284,49500,,IMU->,-115,26,2063,2066,
19989,1386,1250,1486,1435,49500,65076,97284,49500,,IMU->,-84,-20,2035,2036,
19989,1393,1390,2004,1433,49500,65076,97284,49500,,IMU->,-193,32,2029,2038,
19958,1382,1484,2351,1447,49500,65076,97284,49500,,IMU->,-277,27,2048,2066,
19958,1391,1527,2538,1434,49500,65076,97284,49500,,IMU->,-290,16,2044,2064,
19989,1393,1533,2585,1436,49500,65076,97284,49500,,IMU->,-234,26,2053,2066,
19958,1391,1540,2506,1447,49500,65076,97284,49500,,IMU->,-180,4,2049,2056,
19989,1401,1503,2362,1438,49500,65076,97284,49500,,IMU->,-89,-81,2039,2042,
19958,1393,1470,2173,1442,49500,65076,97284,49500,,IMU->,0,-76,2054,2055,
19958,1386,1439,2022,1432,49500,65076,97284,49500,,IMU->,3,-85,2052,2053,
20294,1395,1405,1870,1431,49500,65076,97284,49500,,IMU->,3,-75,2055,2056,
19958,1373,1367,1710,1428,49500,65076,97284,49500,,IMU->,-2,-83,2048,2049,
19989,1393,1333,1609,1439,49500,65076,97284,49500,,IMU->,-12,-77,2047,2048,
19989,1398,1325,1541,1440,49500,64878,96921,49500,,IMU->,-9,-69,2050,2051,
19989,1383,1025,1100,1425,49500,64878,96921,49500,,IMU->,-3,-71,2052,2053,
19958,1391,1039,1155,1438,49500,64878,96921,49500,,IMU->,4,-76,2048,2049,
19958,1385,1069,1223,1427,49500,64878,96921,49500,,IMU->,10,-80,2050,2051,
19989,1377,1068,1293,1421,49500,64878,96921,49500,,IMU->,10,-85,2041,2042,
19958,1387,1091,1356,1442,49500,64878,96921,49500,,IMU->,10,-90,2050,2051,
19989,1390,1111,1403,1436,49500,64878,96921,49500,,IMU->,11,-90,2052,2054,
20019,1384,1099,1388,1433,49500,64878,96921,49500,,IMU->,5,-85,2050,2051,
19958,1383,1102,1348,1434,49500,64878,96921,49500,,IMU->,-1,-80,2052,2053,
19958,1377,1070,1271,1423,49500,64878,96921,49500,,IMU->,-5,-79,2047,2048,
19989,1384,1050,1197,1435,49500,64878,96921,49500,,IMU->,-7,-79,2050,2051,
20294,1387,1029,1122,1420,49500,64878,96921,49500,,IMU->,-7,-80,2048,2049,
19989,1384,999,1034,1433,49500,64878,96921,49500,,IMU->,-8,-74,2051,2052,
19989,1389,996,978,1442,49500,64878,96921,49500,,IMU->,-6,-75,2049,2050,
19989,1387,976,916,1424,49500,64878,96921,49500,,IMU->,-2,-81,2051,2052,
19989,1382,963,863,1435,49500,64878,96921,49500,,IMU->,6,-85,2047,2048,
19958,1382,951,819,1426,49500,64878,96921,49500,,IMU->,7,-84,2049,2050,
19958,1374,928,780,1416,49500,64878,96921,49500,,IMU->,5,-89,2047,2048,
19958,1376,944,786,1426,49500,64878,96921,49500,,IMU->,3,-85,2049,2050,
19958,1385,952,799,1425,49500,64878,96921,49500,,IMU->,6,-87,2047,2048,
19958,1384,951,784,1437,49500,64878,96921,49500,,IMU->,0,-84,2051,2052,
20324,1385,953,786,1432,49500,64878,96921,49500,,IMU->,-3,-84,2050,2051,
19989,1389,945,785,1428,49500,64878,96921,49500,,IMU->,-4,-85,2046,2047,
19958,1379,946,762,1426,49500,64878,96921,49500,,IMU->,-7,-84,2047,2048,
19989,1380,926,752,1419,49500,64878,96921,49500,,IMU->,-2,-84,2050,2051,
19989,1379,921,717,1434,49500,64878,96921,49500,,IMU->,1,-83,2047,2048,
19958,1386,922,706,1430,49500,64878,96921,49500,,IMU->,-3,-86,2053,2054,
19989,1389,914,683,1434,49500,64878,96921,49500,,IMU->,0,-82,2048,2049,
19958,1387,910,639,1430,49500,64878,96921,49500,,IMU->,3,-86,2052,2053,
19958,1382,895,602,1417,49500,64878,96921,49500,,IMU->,4,-86,2052,2053,
19958,1378,883,559,1428,49500,64878,96921,49500,,IMU->,4,-91,2050,2052,
19958,1369,872,517,1425,49500,64878,96921,49500,,IMU->,-2,-85,2051,2052,
19989,1372,858,497,1432,49500,64878,96921,49500,,IMU->,-3,-83,2051,2052,
20324,1380,863,452,1432,49500,64878,96921,49500,,IMU->,-5,-83,2050,2051,
19989,1387,846,435,1426,49500,64878,96921,49500,,IMU->,-6,-83,2051,2052,
19989,1385,838,388,1438,49500,64878,96921,49500,,IMU->,-6,-84,2047,2048,
19958,1377,813,338,1421,49500,64878,96921,49500,,IMU->,-1,-80,2050,2051,
19958,1385,801,309,1426,49500,64878,96921,49500,,IMU->,1,-82,2052,2053,
19958,1377,803,266,1428,49500,64878,96921,49500,,IMU->,0,-84,2047,2048,
19958,1379,792,243,1420,49500,64878,96921,49500,,IMU->,3,-86,2049,2050,
19958,1378,783,199,1434,49500,64878,96921,49500,,IMU->,-1,-89,2047,2048,
19989,1377,782,196,1428,49500,64878,96921,49500,,IMU->,0,-84,2044,2045,
19958,1380,788,268,1426,49500,64878,96921,49500,,IMU->,0,-84,2052,2053,
20294,1364,865,531,1420,49500,64878,96921,49500,,IMU->,1,-84,2048,2049,
19958,1382,978,1035,1419,49500,64878,96921,49500,,IMU->,-2,-82,2049,2050,
19989,1393,1105,1491,1446,49500,64878,96921,49500,,IMU->,-6,-85,2047,2048,
19958,1394,1219,1878,1437,49500,64878,96921,49500,,IMU->,-9,-81,2050,2051,
19989,1395,1266,2068,1442,49500,64878,96921,49500,,IMU->,-5,-79,2047,2048,
19989,1387,1299,2105,1439,49500,64878,96921,49500,,IMU->,-2,-82,2050,2051,
