19989,1575,975,526,1625,49500,72171,113058,49500,,IMU->,2,-78,2049,2050,
19958,1580,971,500,1635,49500,72171,113058,49500,,IMU->,-4,-77,2051,2052,
19958,1578,986,531,1631,49500,72171,113058,49500,,IMU->,-2,-81,2048,2049,
19989,1589,1014,691,1626,49500,72171,113058,49500,,IMU->,0,-78,2050,2051,
19958,1578,1106,985,1637,49500,72171,113058,49500,,IMU->,0,-76,2048,2049,
19958,1580,1183,1313,1627,49500,72171,113058,49500,,IMU->,2,-78,2049,2050,
19958,1578,1261,1560,1641,49500,72171,113058,49500,,IMU->,1,-77,2052,2053,
19958,1582,1323,1721,1633,49500,72171,113058,49500,,IMU->,1,-80,2045,2046,
19958,1577,1324,1750,1631,49500,72171,113058,49500,,IMU->,0,-80,2050,2051,
20324,1583,1335,1717,1643,49500,72171,113058,49500,,IMU->,-5,-77,2051,2052,
19989,1589,1308,1617,1626,49500,72171,113058,49500,,IMU->,0,-77,2052,2053,
19958,1580,1259,1494,1632,49500,72171,113058,49500,,IMU->,0,-78,2048,2049,
19958,1588,1233,1388,1639,49500,72171,113058,49500,,IMU->,2,-78,2048,2049,
19958,1589,1202,1271,1633,49500,72171,113058,49500,,IMU->,-3,-79,2052,2053,
19958,1574,1170,1160,1632,49500,72171,113058,49500,,IMU->,0,-78,2049,2050,
19958,1581,1142,1082,1632,49500,72171,113058,49500,,IMU->,2,-81,2048,2049,
19958,1573,1135,1036,1627,49500,72171,113058,49500,,IMU->,-1,-80,2048,2049,
19958,1569,1112,1025,1627,49500,72171,113058,49500,,IMU->,0,-82,2050,2051,
19958,1587,1133,1038,1635,49500,72171,113058,49500,,IMU->,0,-76,2050,2051,
20324,1580,1145,1092,1632,49500,72171,113058,49500,,IMU->,0,-77,2049,2050,
19958,1583,1155,1162,1633,49500,72171,113058,49500,,IMU->,1,-78,2052,2053,
19958,1588,1189,1211,1638,49500,72171,113058,49500,,IMU->,-2,-79,2045,2046,
19958,1576,1193,1247,1623,49500,72171,113058,49500,,IMU->,1,-80,2051,2052,
19958,1575,1189,1251,1629,49500,72171,113058,49500,,IMU->,0,-77,2051,2052,
19958,1578,1184,1221,1636,49500,72171,113058,49500,,IMU->,0,-79,2050,2051,
19958,1579,1164,1184,1626,49500,72171,113058,49500,,IMU->,1,-82,2048,2049,
19958,1575,1160,1115,1626,49500,72171,113058,49500,,IMU->,-3,-82,2048,2049,
19989,1580,1136,1045,1629,49500,72171,113058,49500,,IMU->,0,-80,2050,2051,
20324,1582,1109,978,1632,49500,72171,113058,49500,,IMU->,0,-79,2045,2046,
19958,1584,1097,920,1632,49500,72171,113058,49500,,IMU->,4,-78,2051,2052,
19958,1573,1067,852,1627,49500,72171,113058,49500,,IMU->,2,-77,2050,2051,
19958,1578,1047,788,1639,49500,72171,113058,49500,,IMU->,-2,-78,2048,2049,
19958,1581,1034,735,1619,49500,72171,113058,49500,,IMU->,0,-78,2047,2048,
19958,1573,1010,685,1624,49500,72171,113058,49500,,IMU->,-1,-80,2052,2053,
19958,1574,1001,648,1641,49500,72204,113190,49500,,IMU->,-3,-78,2052,2053,
19958,1575,1140,766,1625,49500,72204,113190,49500,,IMU->,-3,-79,2046,2047,
19989,1577,1136,750,1632,49500,72204,113190,49500,,IMU->,-2,-78,2052,2053,
20324,1575,1129,749,1629,49500,72204,113190,49500,,IMU->,-1,-80,2048,2049,
19958,1581,1128,723,1631,49500,72204,113190,49500,,IMU->,1,-76,2051,2052,
19958,1580,1124,704,1633,49500,72204,113190,49500,,IMU->,-3,-81,2047,2048,
19989,1581,1107,701,1632,49500,72204,113190,49500,,IMU->,0,-77,2051,2052,
19958,1575,1112,677,1634,49500,72204,113190,49500,,IMU->,4,-79,2051,2052,
19958,1567,1097,632,1617,49500,72204,113190,49500,,IMU->,0,-81,2050,2051,
19958,1575,1092,611,1629,49500,72204,113190,49500,,IMU->,0,-81,2049,2050,
19958,1573,1081,571,1641,49500,72204,113190,49500,,IMU->,1,-75,2049,2050,
19958,1580,1062,547,1632,49500,72204,113190,49500,,IMU->,0,-75,2045,2046,
20324,1582,1064,531,1633,49500,72204,113190,49500,,IMU->,1,-77,2050,2051,
19958,1576,1072,556,1628,49500,72204,113190,49500,,IMU->,-2,-78,2049,2050,
19989,1578,1091,675,1632,49500,72204,113190,49500,,IMU->,-2,-77,2050,2051,
19989,1574,1151,899,1626,49500,72204,113190,49500,,IMU->,3,-77,2048,2049,
19958,1575,1222,1155,1628,49500,72204,113190,49500,,IMU->,1,-77,2051,2052,
19958,1583,1294,1368,1640,49500,72204,113190,49500,,IMU->,-1,-77,2051,2052,
19989,1595,1338,1513,1632,49500,72204,113190,49500,,IMU->,0,-79,2052,2053,
19958,1587,1357,1551,1634,49500,72204,113190,49500,,IMU->,0,-82,2047,2048,
19958,1579,1356,1518,1633,49500,72204,113190,49500,,IMU->,-1,-81,2048,2049,
19989,1573,1324,1444,1622,49500,72204,113190,49500,,IMU->,2,-77,2048,2049,
19958,1571,1296,1338,1630,49500,72204,113190,49500,,IMU->,3,-81,2051,2052,
20324,1575,1273,1232,1623,49500,72204,113190,49500,,IMU->,0,-79,2047,2048,
19958,1581,1240,1126,1631,49500,72204,113190,49500,,IMU->,0,-79,2051,2052,
19958,1581,1218,1025,1634,49500,72204,113190,49500,,IMU->,1,-74,2046,2047,
19958,1577,1188,950,1635,49500,72204,113190,49500,,IMU->,-2,-80,2051,2052,
19989,1577,1171,889,1632,49500,72204,113190,49500,,IMU->,4,-80,2048,2049,
19958,1570,1169,871,1617,49500,72204,113190,49500,,IMU->,3,-79,2047,2048,
19958,1578,1167,899,1626,49500,72204,113190,49500,,IMU->,1,-79,2048,2049,
19958,1573,1192,965,1633,49500,72204,113190,49500,,IMU->,0,-80,2050,2051,
19958,1578,1200,1009,1630,49500,72204,113190,49500,,IMU->,0,-82,2051,2052,
19958,1567,1223,1059,1632,49500,72204,113190,49500,,IMU->,-3,-79,2048,2049,
20355,1581,1240,1102,1623,49500,72204,113190,49500,,IMU->,0,-81,2049,2050,
19958,1580,1230,1090,1626,49500,72204,113190,49500,,IMU->,0,-75,2052,2053,
19958,1574,1223,1056,1628,49500,72204,113190,49500,,IMU->,2,-79,2048,2049,
19958,1582,1212,1034,1630,49500,72204,113190,49500,,IMU->,0,-77,2046,2047,
19958,1580,1201,983,1631,49500,72204,113190,49500,,IMU->,-4,-78,2049,2050,
19958,1577,1189,915,1629,49500,72204,113190,49500,,IMU->,-1,-80,2049,2050,
19989,1582,1161,860,1630,49500,72204,113190,49500,,IMU->,0,-78,2048,2049,
19958,1569,1145,792,1629,49500,72204,113190,49500,,IMU->,6,-81,2046,2047,
19958,1571,1114,737,1620,49500,72204,113190,49500,,IMU->,5,-75,2054,2055,
19958,1574,1095,677,1630,49500,72204,113190,49500,,IMU->,1,-79,2047,2048,
20324,1580,1085,626,1628,49500,72204,113190,49500,,IMU->,-2,-80,2050,2051,
19989,1587,1076,598,1632,49500,72204,113190,49500,,IMU->,-2,-81,2047,2048,
19958,1586,1067,549,1638,49500,72204,113190,49500,,IMU->,2,-76,2049,2050,
19958,1583,1038,505,1628,49500,72204,113190,49500,,IMU->,3,-78,2047,2048,
19958,1573,1030,468,1631,49500,72204,113190,49500,,IMU->,0,-79,2054,2055,
19958,1565,1027,455,1618,49500,72204,113190,49500,,IMU->,1,-77,2049,2050,
19958,1579,1029,472,1631,49500,72204,113190,49500,,IMU->,0,-77,2053,2054,
19958,1576,1035,448,1623,49500,72204,113190,49500,,IMU->,0,-80,2046,2047,
19958,1568,1026,452,1629,49500,72204,113190,49500,,IMU->,2,-78,2049,2050,
20324,1583,1030,429,1634,49500,72204,113190,49500,,IMU->,0,-80,2048,2049,
19958,1579,1025,418,1619,49500,72204,113190,49500,,IMU->,4,-77,2046,2047,
19958,1568,1007,381,1616,49500,72204,113190,49500,,IMU->,-1,-78,2050,2051,
19958,1573,1008,359,1628,49500,72204,113190,49500,,IMU->,-3,-77,2050,2051,
19958,1573,991,344,1618,49500,72204,113190,49500,,IMU->,0,-76,2047,2048,
19958,1573,992,323,1629,49500,72204,113190,49500,,IMU->,2,-73,2047,2048,
19958,1581,1010,361,1633,49500,72204,113190,49500,,IMU->,1,-77,2048,2049,
19958,1581,1031,501,1623,49500,72204,113190,49500,,IMU->,-1,-76,2048,2049,
19989,1581,1126,778,1633,49500,72204,113190,49500,,IMU->,0,-82,2049,2050,
20324,1579,1199,1081,1620,49500,72204,113190,49500,,IMU->,0,-78,2049,2050,
19958,1574,1275,1352,1628,49500,72204,113190,49500,,IMU->,0,-75,2048,2049,
19958,1577,1342,1529,1632,49500,72204,113190,49500,,IMU->,0,-76,2046,2047,
19958,1581,1360,1598,1628,49500,72204,113190,49500,,IMU->,1,-77,2048,2049,
19958,1575,1358,1574,1636,49500,72204,113190,49500,,IMU->,-2,-81,2047,2048,
19958,1588,1344,1503,1628,49500,72204,113190,49500,,IMU->,-1,-79,2045,2046,
19989,1580,1321,1435,1627,49500,72204,113190,49500,,IMU->,-2,-79,2049,2050,
19958,1566,1307,1343,1628,49500,72204,113190,49500,,IMU->,0,-77,2049,2050,
19958,1569,1279,1242,1627,49500,72204,113190,49500,,IMU->,-1,-79,2054,2055,
19989,1584,1245,1130,1629,49500,72204,113190,49500,,IMU->,0,-78,2053,2054,
20324,1576,1216,1057,1632,49500,72204,113190,49500,,IMU->,-1,-78,2051,2052,
19958,1581,1222,1009,1635,49500,72204,113190,49500,,IMU->,0,-78,2047,2048,
19958,1569,1185,948,1619,49500,72204,113190,49500,,IMU->,0,-80,2049,2050,
19958,1579,1177,967,1629,49500,72204,113190,49500,,IMU->,2,-78,2049,2050,
19958,1580,1207,993,1635,49500,72204,113190,49500,,IMU->,0,-77,2048,2049,
19958,1572,1214,1076,1629,49500,72204,113190,49500,,IMU->,0,-78,2051,2052,
19958,1590,1242,1134,1637,49500,72204,113190,49500,,IMU->,1,-79,2051,2052,
19958,1575,1253,1167,1630,49500,72204,113190,49500,,IMU->,4,-76,2048,2049,
20324,1577,1251,1171,1626,49500,72204,113190,49500,,IMU->,-2,-76,2049,2050,
19989,1578,1257,1148,1631,49500,72204,113190,49500,,IMU->,0,-78,2050,2051,
19958,1578,1237,1134,1621,49500,72204,113190,49500,,IMU->,-2,-81,2051,2052,
19958,1591,1234,1104,1633,49500,72204,113190,49500,,IMU->,-3,-78,2049,2050,
19989,1581,1231,1074,1623,49500,72204,113190,49500,,IMU->,0,-77,2051,2052,
19958,1580,1211,1014,1625,49500,72204,113190,49500,,IMU->,2,-79,2047,2048,
19958,1579,1200,950,1632,49500,72204,113190,49500,,IMU->,1,-79,2047,2048,
19958,1582,1181,908,1624,49500,72204,113190,49500,,IMU->,2,-80,2045,2046,
19958,1568,1159,851,1627,49500,72204,113190,49500,,IMU->,1,-79,2047,2048,
19958,1566,1156,822,1627,49500,72204,113190,49500,,IMU->,0,-79,2049,2050,
20324,1576,1138,769,1617,49500,72204,113190,49500,,IMU->,0,-80,2048,2049,
19958,1574,1129,749,1631,49500,72204,113190,49500,,IMU->,0,-78,2048,2049,
19958,1583,1125,727,1631,49500,72204,113190,49500,,IMU->,1,-80,2050,2051,
19958,1574,1118,696,1634,49500,72204,113190,49500,,IMU->,0,-77,2049,2050,
19958,1567,1109,664,1622,49500,72204,113190,49500,,IMU->,0,-79,2049,2050,
19958,1589,1109,664,1628,49500,72204,113190,49500,,IMU->,2,-81,2049,2050,
19958,1574,1111,652,1631,49500,72204,113190,49500,,IMU->,0,-77,2046,2047,
19958,1568,1091,632,1624,49500,72204,113190,49500,,IMU->,0,-81,2049,2050,
19958,1571,1090,631,1636,49500,72204,113190,49500,,IMU->,-6,-77,2048,2049,
20324,1570,1089,597,1620,49500,72204,113190,49500,,IMU->,-3,-77,2047,2048,
19958,1578,1068,594,1631,49500,72204,113190,49500,,IMU->,0,-81,2050,2051,
19958,1580,1075,561,1636,49500,72204,113190,49500,,IMU->,0,-73,2049,2050,
19958,1572,1061,557,1627,49500,72204,113190,49500,,IMU->,-1,-80,2051,2052,
19958,1578,1067,546,1630,49500,72204,113190,49500,,IMU->,-1,-77,2049,2050,
19958,1578,1061,504,1623,49500,72204,113190,49500,,IMU->,-1,-77,2047,2048,
19989,1566,1039,466,1624,49500,72204,113190,49500,,IMU->,-2,-76,2052,2053,
19958,1573,1026,408,1628,49500,72204,113190,49500,,IMU->,1,-78,2050,2051,
19958,1566,1006,382,1618,49500,72204,113190,49500,,IMU->,3,-77,2049,2050,
20324,1579,1004,353,1632,49500,72204,113190,49500,,IMU->,1,-76,2051,2052,
19958,1581,1022,419,1621,49500,72204,113190,49500,,IMU->,0,-81,2051,2052,
19958,1569,1079,667,1624,49500,72204,113190,49500,,IMU->,0,-77,2048,2049,
19958,1581,1187,994,1641,49500,72204,113190,49500,,IMU->,-1,-75,2051,2052,
19989,1583,1267,1289,1623,49500,72204,113190,49500,,IMU->,-1,-81,2051,2052,
19958,1568,1316,1482,1621,49500,72204,113190,49500,,IMU->,3,-80,2045,2046,
19958,1574,1367,1621,1629,49500,72204,113190,49500,,IMU->,-3,-76,2048,2049,
19989,1585,1373,1657,1625,49500,72204,113190,49500,,IMU->,-2,-80,2051,2052,
19958,1574,1377,1609,1635,49500,72204,113190,49500,,IMU->,-1,-80,2046,2047,
19989,1578,1351,1541,1633,49500,72204,113190,49500,,IMU->,1,-79,2045,2046,
19958,1580,1322,1432,1632,49500,72204,113190,49500,,IMU->,-1,-75,2052,2053,
20324,1569,1305,1334,1630,49500,72204,113190,49500,,IMU->,-2,-77,2049,2050,
19989,1575,1271,1248,1624,49500,72204,113190,49500,,IMU->,1,-82,2043,2044,
19958,1577,1243,1151,1636,49500,72204,113190,49500,,IMU->,0,-83,2047,2048,
19958,1580,1224,1088,1626,49500,72204,113190,49500,,IMU->,0,-81,2047,2048,
19958,1581,1213,1030,1628,49500,72204,113190,49500,,IMU->,-2,-78,2048,2049,
19989,1572,1205,996,1623,49500,72204,113190,49500,,IMU->,1,-80,2052,2053,
19958,1576,1201,1014,1624,49500,72204,113190,49500,,IMU->,1,-80,2050,2051,
19958,1573,1216,1046,1626,49500,72204,113190,49500,,IMU->,-1,-79,2049,2050,
19958,1569,1215,1100,1628,49500,72204,113190,49500,,IMU->,-6,-75,2048,2049,
19989,1588,1236,1152,1639,49500,72204,113190,49500,,IMU->,0,-77,2049,2050,
20324,1576,1245,1161,1618,49500,72204,113190,49500,,IMU->,0,-75,2048,2049,
19958,1571,1234,1165,1626,49500,72204,113190,49500,,IMU->,-1,-77,2051,2052,
19958,1574,1245,1144,1635,49500,72204,113190,49500,,IMU->,2,-81,2048,2049,
19958,1570,1226,1096,1615,49500,72204,113190,49500,,IMU->,1,-78,2050,2051,
19958,1572,1208,1056,1629,49500,72204,113190,49500,,IMU->,-1,-82,2050,2051,
19958,1574,1209,1008,1634,49500,72204,113190,49500,,IMU->,1,-79,2051,2052,
19958,1577,1189,969,1625,49500,72204,113190,49500,,IMU->,0,-79,2048,2049,
19958,1579,1172,905,1630,49500,72204,113190,49500,,IMU->,4,-78,2051,2052,
19958,1572,1158,853,1627,49500,72204,113190,49500,,IMU->,1,-75,2053,2054,
20294,1574,1127,796,1625,49500,72204,113190,49500,,IMU->,3,-76,2050,2051,
19958,1571,1118,764,1622,49500,72204,113190,49500,,IMU->,1,-79,2054,2055,
19958,1574,1103,713,1620,49500,72204,113190,49500,,IMU->,0,-74,2050,2051,
19958,1576,1096,685,1633,49500,72204,113190,49500,,IMU->,1,-78,2048,2049,
19958,1586,1090,664,1630,49500,72204,113190,49500,,IMU->,0,-77,2048,2049,
19958,1579,1090,648,1632,49500,72204,113190,49500,,IMU->,0,-78,2049,2050,
19958,1566,1085,655,1630,49500,72204,113190,49500,,IMU->,3,-79,2044,2045,
20324,1576,1079,639,1622,49500,72204,113190,49500,,IMU->,-1,-77,2048,2049,
19958,1566,1074,630,1626,49500,72204,113190,49500,,IMU->,6,-78,2048,2049,
19958,1575,1071,626,1627,49500,72204,113190,49500,,IMU->,0,-80,2046,2047,
19958,1579,1068,613,1625,49500,72204,113190,49500,,IMU->,0,-80,2048,2049,
19958,1568,1073,593,1627,49500,72204,113190,49500,,IMU->,0,-82,2052,2053,
19958,1580,1065,608,1630,49500,72204,113190,49500,,IMU->,0,-77,2051,2052,
19989,1577,1076,591,1631,49500,72171,113421,49500,,IMU->,0,-76,2049,2050,
19958,1566,914,880,1618,49500,72171,113421,49500,,IMU->,-1,-79,2050,2051,
19958,1572,912,872,1626,49500,72171,113421,49500,,IMU->,-1,-77,2049,2050,
19989,1566,921,866,1625,49500,72171,113421,49500,,IMU->,-1,-80,2048,2049,
20324,1579,911,844,1625,49500,72171,113421,49500,,IMU->,0,-76,2048,2049,
19927,1586,906,819,1641,49500,72171,113421,49500,,IMU->,2,-77,2050,2051,
19958,1576,893,780,1627,49500,72171,113421,49500,,IMU->,4,-78,2051,2052,
19958,1574,878,756,1626,49500,72171,113421,49500,,IMU->,0,-80,2051,2052,
19958,1568,874,732,1618,49500,72171,113421,49500,,IMU->,1,-80,2050,2051,
19958,1571,874,734,1626,49500,72171,113421,49500,,IMU->,2,-79,2050,2051,
19958,1571,878,741,1634,49500,72171,113421,49500,,IMU->,-1,-77,2047,2048,
19989,1576,883,789,1626,49500,72171,113421,49500,,IMU->,1,-78,2049,2050,
19958,1574,925,964,1632,49500,72171,113421,49500,,IMU->,3,-80,2049,2050,
20324,1576,1026,1267,1624,49500,72171,113421,49500,,IMU->,-1,-80,2048,2049,
19958,1575,1107,1596,1619,49500,72171,113421,49500,,IMU->,0,-78,2050,2051,
19958,1577,1187,1821,1632,49500,72171,113421,49500,,IMU->,2,-77,2048,2049,
19958,1578,1226,1962,1636,49500,72171,113421,49500,,IMU->,2,-79,2046,2047,
19958,1582,1234,2001,1629,49500,72171,113421,49500,,IMU->,1,-77,2051,2052,
19958,1578,1242,1976,1632,49500,72171,113421,49500,,IMU->,2,-75,2047,2048,
19958,1580,1211,1901,1627,49500,72171,113421,49500,,IMU->,0,-83,2052,2053,
19958,1571,1188,1804,1626,49500,72171,113421,49500,,IMU->,0,-80,2048,2049,
20324,1572,1169,1718,1622,49500,72171,113421,49500,,IMU->,0,-76,2048,2049,
19927,1579,1132,1629,1632,49500,72171,113421,49500,,IMU->,3,-77,2051,2052,
19958,1575,1116,1527,1624,49500,72171,113421,49500,,IMU->,3,-78,2048,2049,
19958,1577,1090,1449,1630,49500,72171,113421,49500,,IMU->,3,-78,2047,2048,
19958,1582,1083,1406,1633,49500,72171,113421,49500,,IMU->,2,-80,2048,2049,
19958,1579,1065,1385,1628,49500,72171,113421,49500,,IMU->,-2,-77,2053,2054,
19958,1574,1061,1406,1627,49500,72171,113421,49500,,IMU->,0,-75,2045,2046,
19958,1561,1079,1443,1621,49500,72171,113421,49500,,IMU->,1,-77,2053,2054,
20324,1576,1099,1504,1621,49500,72171,113421,49500,,IMU->,0,-78,2048,2049,
19927,1583,1117,1561,1632,49500,72171,113421,49500,,IMU->,0,-77,2048,2049,
19958,1575,1122,1595,1638,49500,72171,113421,49500,,IMU->,1,-78,2051,2052,
19958,1586,1145,1621,1633,49500,72171,113421,49500,,IMU->,1,-77,2052,2053,
19958,1571,1139,1599,1620,49500,72171,113421,49500,,IMU->,0,-75,2048,2049,
19958,1568,1117,1571,1622,49500,72171,113421,49500,,IMU->,1,-78,2048,2049,
19958,1575,1122,1531,1633,49500,72171,113421,49500,,IMU->,2,-83,2049,2050,
19958,1568,1111,1502,1621,49500,72171,113421,49500,,IMU->,-1,-79,2045,2046,
19989,1582,1102,1476,1633,49500,72171,113421,49500,,IMU->,3,-78,2051,2052,
20324,1579,1101,1427,1633,49500,72171,113421,49500,,IMU->,1,-80,2048,2049,
19927,1575,1083,1387,1631,49500,72171,113421,49500,,IMU->,0,-78,2046,2047,
19958,1577,1061,1316,1630,49500,72171,113421,49500,,IMU->,0,-80,2050,2051,
19958,1571,1040,1292,1623,49500,72171,113421,49500,,IMU->,2,-81,2049,2050,
19958,1576,1030,1259,1632,49500,72171,113421,49500,,IMU->,1,-79,2051,2052,
19958,1574,1027,1225,1627,49500,72171,113421,49500,,IMU->,-3,-79,2050,2051,
19989,1571,1012,1203,1619,49500,72171,113421,49500,,IMU->,0,-81,2047,2048,
19958,1578,1019,1174,1640,49500,72171,113421,49500,,IMU->,1,-80,2051,2052,
20324,1578,1007,1160,1619,49500,72171,113421,49500,,IMU->,3,-75,2047,2048,
19989,1574,990,1150,1621,49500,72171,113421,49500,,IMU->,3,-76,2045,2046,
19927,1572,1008,1150,1631,49500,72171,113421,49500,,IMU->,-1,-77,2052,2053,
19989,1575,997,1141,1620,49500,72171,113421,49500,,IMU->,0,-78,2050,2051,
19958,1576,995,1135,1635,49500,72171,113421,49500,,IMU->,0,-79,2050,2051,
19958,1581,1002,1122,1629,49500,72171,113421,49500,,IMU->,2,-78,2046,2047,
19958,1577,985,1118,1626,49500,72171,113421,49500,,IMU->,-1,-77,2047,2048,
19958,1559,981,1091,1621,49500,72171,113421,49500,,IMU->,0,-78,2051,2052,
19958,1571,977,1066,1623,49500,72171,113421,49500,,IMU->,0,-78,2048,2049,
20324,1576,976,1047,1628,49500,72171,113421,49500,,IMU->,0,-77,2048,2049,
19989,1575,958,1021,1630,49500,72171,113421,49500,,IMU->,1,-83,2052,2053,
19958,1586,955,1001,1630,49500,72171,113421,49500,,IMU->,0,-78,2054,2055,
19958,1576,945,958,1627,49500,72171,113421,49500,,IMU->,2,-79,2050,2051,
19958,1575,926,942,1624,49500,72171,113421,49500,,IMU->,1,-81,2054,2055,
19958,1571,952,1025,1622,49500,72171,113421,49500,,IMU->,4,-80,2050,2051,
19958,1572,1021,1271,1622,49500,72171,113421,49500,,IMU->,4,-78,2048,2049,
19958,1576,1105,1605,1626,49500,72171,113421,49500,,IMU->,0,-79,2050,2051,
19958,1572,1191,1859,1632,49500,72171,113421,49500,,IMU->,-1,-80,2054,2055,
19989,1588,1246,2085,1634,49500,72171,113421,49500,,IMU->,0,-80,2046,2047,
20324,1587,1294,2205,1636,49500,72171,113421,49500,,IMU->,-1,-83,2048,2049,
19958,1577,1298,2246,1625,49500,72171,113421,49500,,IMU->,0,-77,2045,2046,
19927,1580,1279,2209,1630,49500,72171,113421,49500,,IMU->,-4,-78,2047,2048,
19989,1582,1274,2137,1632,49500,72171,113421,49500,,IMU->,0,-79,2045,2046,
19958,1571,1258,2059,1620,49500,72171,113421,49500,,IMU->,0,-80,2051,2052,
19958,1576,1227,1980,1637,49500,72171,113421,49500,,IMU->,1,-77,2046,2047,
19958,1582,1205,1893,1634,49500,72171,113421,49500,,IMU->,1,-76,2047,2048,
19958,1574,1167,1794,1630,49500,72171,113421,49500,,IMU->,1,-79,2049,2050,
19958,1566,1156,1717,1632,49500,72171,113421,49500,,IMU->,2,-78,2052,2053,
20324,1582,1136,1666,1618,49500,72171,113421,49500,,IMU->,2,-81,2048,2049,
19958,1582,1129,1645,1634,49500,72171,113421,49500,,IMU->,1,-79,2046,2047,
19958,1581,1151,1710,1634,49500,72171,113421,49500,,IMU->,2,-78,2047,2048,
19958,1582,1168,1763,1625,49500,72171,113421,49500,,IMU->,0,-77,2054,2055,
19958,1565,1181,1808,1622,49500,72171,113421,49500,,IMU->,1,-80,2053,2054,
19958,1573,1199,1881,1626,49500,72171,113421,49500,,IMU->,1,-82,2047,2048,
19958,1581,1218,1913,1632,49500,72171,113421,49500,,IMU->,-1,-79,2049,2050,
19989,1580,1221,1931,1630,49500,72171,113421,49500,,IMU->,-1,-81,2047,2048,
19989,1573,1216,1944,1633,49500,72171,113421,49500,,IMU->,1,-78,2047,2048,
19958,1553,1228,1926,1631,49500,72171,113421,49500,,IMU->,0,-79,2052,2053,
20355,1576,1223,1916,1623,49500,72171,113421,49500,,IMU->,0,-75,2051,2052,
19958,1575,1204,1866,1626,49500,72171,113421,49500,,IMU->,2,-78,2046,2047,
19958,1571,1188,1818,1630,49500,72171,113421,49500,,IMU->,-2,-77,2046,2047,
19958,1583,1175,1786,1627,49500,72171,113421,49500,,IMU->,-2,-80,2047,2048,
19989,1577,1166,1747,1628,49500,72171,113421,49500,,IMU->,2,-81,2049,2050,
19958,1577,1164,1725,1626,49500,72171,113421,49500,,IMU->,3,-79,2050,2051,
19958,1582,1147,1668,1635,49500,72171,113421,49500,,IMU->,2,-82,2048,2049,
19958,1576,1125,1627,1618,49500,72171,113421,49500,,IMU->,1,-78,2047,2048,
19958,1564,1106,1611,1623,49500,72171,113421,49500,,IMU->,1,-78,2054,2055,
19958,1575,1125,1593,1633,49500,72171,113421,49500,,IMU->,1,-80,2048,2049,
20294,1575,1111,1603,1617,49500,72171,113421,49500,,IMU->,0,-77,2047,2048,
19927,1580,1112,1583,1636,49500,72171,113421,49500,,IMU->,3,-78,2049,2050,
19958,1580,1112,1588,1625,49500,72171,113421,49500,,IMU->,0,-76,2046,2047,
19958,1572,1099,1572,1628,49500,72171,113421,49500,,IMU->,1,-79,2056,2057,
19958,1568,1101,1566,1623,49500,72171,113421,49500,,IMU->,2,-78,2050,2051,
19958,1574,1097,1548,1621,49500,72171,113421,49500,,IMU->,0,-75,2046,2047,
19958,1565,1095,1526,1631,49500,72171,113421,49500,,IMU->,0,-78,2048,2049,
20324,1577,1108,1552,1628,49500,72171,113421,49500,,IMU->,-2,-76,2052,2053,
19958,1580,1099,1560,1624,49500,72171,113421,49500,,IMU->,1,-77,2046,2047,
19927,1568,1105,1535,1627,49500,72171,113421,49500,,IMU->,3,-76,2049,2050,
19958,1574,1085,1501,1620,49500,72171,113421,49500,,IMU->,1,-76,2048,2049,
19958,1570,1058,1465,1626,49500,72171,113421,49500,,IMU->,1,-77,2049,2050,
19958,1569,1060,1434,1638,49500,72171,113421,49500,,IMU->,1,-76,2046,2047,
19958,1584,1047,1421,1635,49500,72171,113421,49500,,IMU->,0,-78,2050,2051,
20324,1568,1033,1367,1622,49500,72171,113421,49500,,IMU->,0,-76,2050,2051,
19958,1579,1044,1390,1626,49500,72171,113421,49500,,IMU->,1,-80,2048,2049,
19958,1577,1074,1511,1635,49500,72171,113421,49500,,IMU->,3,-79,2053,2054,
19927,1565,1128,1745,1624,49500,72171,113421,49500,,IMU->,2,-76,2050,2051,
19958,1582,1210,2071,1630,49500,72171,113421,49500,,IMU->,0,-80,2050,2051,
19958,1578,1298,2337,1633,49500,72171,113421,49500,,IMU->,-2,-79,2049,2050,
19958,1578,1354,2541,1633,49500,72171,113421,49500,,IMU->,-2,-78,2048,2049,
19989,1588,1396,2645,1640,49500,72171,113421,49500,,IMU->,0,-78,2049,2050,
19958,1578,1392,2667,1629,49500,72171,113421,49500,,IMU->,0,-79,2048,2049,
20324,1574,1376,2621,1626,49500,72171,113421,49500,,IMU->,1,-77,2046,2047,
19958,1570,1360,2542,1626,49500,72171,113421,49500,,IMU->,0,-76,2046,2047,
19958,1573,1335,2472,1622,49500,72171,113421,49500,,IMU->,-1,-77,2050,2051,
19927,1583,1313,2371,1636,49500,72171,113421,49500,,IMU->,1,-81,2047,2048,
19958,1588,1301,2307,1633,49500,72171,113421,49500,,IMU->,1,-79,2048,2049,
19958,1581,1275,2250,1631,49500,72171,113421,49500,,IMU->,1,-80,2046,2047,
19958,1576,1275,2195,1631,49500,72171,113421,49500,,IMU->,-1,-77,2049,2050,
19958,1563,1257,2186,1616,49500,72171,113421,49500,,IMU->,0,-78,2050,2051,
20324,1579,1260,2180,1630,49500,72171,113421,49500,,IMU->,1,-78,2048,2049,
19989,1581,1287,2267,1628,49500,72171,113421,49500,,IMU->,-1,-81,2048,2049,
19989,1582,1303,2359,1629,49500,72171,113421,49500,,IMU->,2,-81,2050,2051,
19958,1577,1338,2461,1634,49500,72171,113421,49500,,IMU->,0,-78,2048,2049,
19927,1582,1351,2483,1626,49500,72171,113421,49500,,IMU->,1,-77,2049,2050,
19958,1577,1338,2477,1628,49500,72171,113421,49500,,IMU->,0,-78,2047,2048,
19958,1578,1339,2469,1629,49500,72171,113421,49500,,IMU->,0,-76,2051,2052,
19958,1578,1331,2461,1632,49500,72171,113421,49500,,IMU->,0,-78,2050,2051,
19958,1567,1327,2420,1631,49500,72171,113421,49500,,IMU->,-1,-80,2046,2047,
19989,1579,1312,2368,1630,49500,72171,113421,49500,,IMU->,0,-79,2054,2055,
20324,1589,1301,2309,1642,49500,72171,113421,49500,,IMU->,4,-79,2047,2048,
19927,1573,1272,2251,1626,49500,72171,113421,49500,,IMU->,0,-78,2047,2048,
19927,1575,1248,2202,1626,49500,72171,113421,49500,,IMU->,1,-79,2050,2051,
19958,1571,1243,2159,1628,49500,72171,113421,49500,,IMU->,0,-78,2048,2049,
19958,1568,1233,2135,1628,49500,72171,113421,49500,,IMU->,-1,-77,2051,2052,
19958,1568,1232,2114,1634,49500,72171,113421,49500,,IMU->,-1,-80,2045,2046,
19989,1561,1225,2093,1630,49500,72171,113421,49500,,IMU->,0,-76,2048,2049,
20324,1581,1208,2095,1629,49500,72171,113421,49500,,IMU->,0,-79,2046,2047,
19958,1571,1214,2101,1624,49500,72171,113421,49500,,IMU->,0,-74,2049,2050,
19958,1569,1221,2165,1614,49500,72171,113421,49500,,IMU->,-2,-77,2048,2049,
19989,1579,1239,2180,1637,49500,72171,113421,49500,,IMU->,1,-78,2051,2052,
19958,1580,1234,2186,1634,49500,72171,113421,49500,,IMU->,0,-80,2052,2053,
19927,1579,1230,2222,1637,49500,72171,113421,49500,,IMU->,0,-79,2051,2052,
19958,1579,1248,2244,1639,49500,72171,113421,49500,,IMU->,0,-80,2043,2044,
19958,1574,1239,2231,1617,49500,72171,113421,49500,,IMU->,0,-81,2049,2050,
19958,1568,1222,2208,1625,49500,72138,112893,49500,,IMU->,-2,-77,2048,2049,
19989,1576,1220,1603,1629,49500,72138,112893,49500,,IMU->,-2,-79,2045,2046,
20355,1582,1207,1585,1625,49500,72138,112893,49500,,IMU->,0,-77,2047,2048,
19958,1574,1209,1574,1633,49500,72138,112893,49500,,IMU->,-2,-79,2050,2051,
19958,1587,1203,1537,1634,49500,72138,112893,49500,,IMU->,2,-77,2050,2051,
19958,1579,1183,1468,1635,49500,72138,112893,49500,,IMU->,0,-80,2048,2049,
19927,1580,1167,1437,1624,49500,72138,112893,49500,,IMU->,-2,-79,2047,2048,
19958,1574,1137,1414,1623,49500,72138,112893,49500,,IMU->,0,-79,2051,2052,
19958,1567,1136,1382,1630,49500,72138,112893,49500,,IMU->,0,-81,2047,2048,
19958,1562,1140,1367,1621,49500,72138,112893,49500,,IMU->,0,-80,2052,2053,
20324,1576,1128,1343,1634,49500,72138,112893,49500,,IMU->,0,-80,2048,2049,
19958,1588,1134,1336,1639,49500,72138,112893,49500,,IMU->,-2,-77,2049,2050,
19927,1574,1124,1352,1631,49500,72138,112893,49500,,IMU->,2,-84,2047,2048,
19927,1563,1152,1467,1628,49500,72138,112893,49500,,IMU->,0,-81,2048,2049,
19958,1581,1219,1749,1623,49500,72138,112893,49500,,IMU->,1,-78,2050,2051,
19958,1581,1310,2043,1633,49500,72138,112893,49500,,IMU->,-1,-79,2049,2050,
19958,1568,1373,2326,1634,49500,72138,112893,49500,,IMU->,0,-78,2049,2050,
20324,1585,1443,2550,1638,49500,72138,112893,49500,,IMU->,-1,-76,2049,2050,
19989,1584,1489,2663,1635,49500,72138,112893,49500,,IMU->,-3,-77,2050,2051,
19989,1579,1495,2704,1625,49500,72138,112893,49500,,IMU->,0,-78,2050,2051,
19958,1578,1504,2700,1633,49500,72138,112893,49500,,IMU->,0,-77,2051,2052,
19958,1581,1493,2658,1634,49500,72138,112893,49500,,IMU->,-2,-80,2051,2052,
19989,1569,1462,2584,1633,49500,72138,112893,49500,,IMU->,-1,-81,2049,2050,
19989,1579,1434,2479,1637,49500,72138,112893,49500,,IMU->,0,-77,2048,2049,
19927,1576,1417,2397,1629,49500,72138,112893,49500,,IMU->,2,-81,2050,2051,
19958,1586,1390,2329,1636,49500,72138,112893,49500,,IMU->,2,-76,2046,2047,
19958,1577,1368,2293,1630,49500,72138,112893,49500,,IMU->,1,-78,2046,2047,
19958,1573,1353,2259,1630,49500,72138,112893,49500,,IMU->,0,-78,2045,2046,
20324,1581,1347,2247,1634,49500,72138,112893,49500,,IMU->,-3,-79,2050,2051,
19958,1578,1346,2264,1625,49500,72138,112893,49500,,IMU->,0,-81,2053,2054,
19927,1587,1367,2315,1638,49500,72138,112893,49500,,IMU->,1,-79,2051,2052,
19927,1589,1382,2381,1637,49500,72138,112893,49500,,IMU->,0,-77,2050,2051,
19958,1580,1376,2412,1629,49500,72138,112893,49500,,IMU->,-1,-79,2049,2050,
19958,1569,1377,2425,1637,49500,72138,112893,49500,,IMU->,-1,-79,2047,2048,
19989,1568,1376,2429,1625,49500,72138,112893,49500,,IMU->,1,-80,2047,2048,
19958,1584,1368,2378,1634,49500,72138,112893,49500,,IMU->,1,-79,2050,2051,
20324,1589,1362,2341,1638,49500,72138,112893,49500,,IMU->,0,-75,2051,2052,
19958,1587,1340,2315,1639,49500,72138,112893,49500,,IMU->,0,-77,2051,2052,
19927,1578,1326,2255,1639,49500,72138,112893,49500,,IMU->,0,-78,2048,2049,
19927,1577,1313,2194,1624,49500,72138,112893,49500,,IMU->,1,-78,2050,2051,
19958,1578,1285,2123,1627,49500,72138,112893,49500,,IMU->,3,-81,2048,2049,
19958,1572,1260,2058,1634,49500,72138,112893,49500,,IMU->,1,-81,2051,2052,
19958,1568,1243,2052,1633,49500,72138,112893,49500,,IMU->,0,-78,2047,2048,
20324,1580,1245,1998,1633,49500,72138,112893,49500,,IMU->,0,-77,2050,2051,
19958,1576,1237,1972,1632,49500,72138,112893,49500,,IMU->,1,-79,2048,2049,
19958,1583,1220,1921,1634,49500,72138,112893,49500,,IMU->,-1,-80,2052,2053,
19958,1579,1207,1885,1627,49500,72138,112893,49500,,IMU->,-1,-79,2047,2048,
19927,1593,1194,1902,1635,49500,72138,112893,49500,,IMU->,-1,-78,2051,2052,
19989,1574,1198,1885,1631,49500,72138,112893,49500,,IMU->,2,-82,2052,2053,
19958,1569,1190,1872,1622,49500,72138,112893,49500,,IMU->,1,-80,2049,2050,
19958,1577,1191,1869,1635,49500,72138,112893,49500,,IMU->,2,-79,2052,2053,
20324,1576,1189,1829,1626,49500,72138,112893,49500,,IMU->,0,-79,2048,2049,
19958,1576,1163,1826,1634,49500,72138,112893,49500,,IMU->,-1,-79,2051,2052,
19989,1585,1165,1804,1638,49500,72138,112893,49500,,IMU->,0,-77,2051,2052,
19958,1579,1149,1767,1624,49500,72138,112893,49500,,IMU->,1,-75,2047,2048,
19958,1574,1142,1752,1630,49500,72138,112893,49500,,IMU->,0,-79,2050,2051,
19958,1587,1146,1740,1637,49500,72138,112893,49500,,IMU->,1,-78,2047,2048,
19958,1574,1119,1708,1624,49500,72138,112893,49500,,IMU->,0,-77,2052,2053,
19958,1572,1108,1667,1631,49500,72138,112893,49500,,IMU->,-3,-74,2049,2050,
19958,1572,1098,1622,1623,49500,72138,112893,49500,,IMU->,1,-75,2047,2048,
20324,1579,1082,1574,1629,49500,72138,112893,49500,,IMU->,-1,-77,2050,2051,
19958,1583,1075,1546,1634,49500,72138,112893,49500,,IMU->,2,-80,2047,2048,
19958,1589,1066,1534,1629,49500,72138,112893,49500,,IMU->,0,-77,2045,2046,
19958,1576,1068,1506,1636,49500,72138,112893,49500,,IMU->,-1,-79,2050,2051,
19958,1570,1058,1481,1620,49500,72138,112893,49500,,IMU->,2,-80,2049,2050,
19927,1575,1040,1480,1620,49500,72138,112893,49500,,IMU->,1,-78,2048,2049,
19958,1575,1069,1562,1639,49500,72138,112893,49500,,IMU->,0,-75,2053,2054,
19958,1582,1123,1800,1631,49500,72138,112893,49500,,IMU->,-1,-78,2055,2056,
19989,1573,1198,2070,1623,49500,72138,112893,49500,,IMU->,-2,-78,2051,2052,
19989,1580,1274,2323,1634,49500,72138,112893,49500,,IMU->,1,-78,2052,2053,
20324,1591,1334,2506,1633,49500,72138,112893,49500,,IMU->,1,-78,2052,2053,
19958,1570,1347,2576,1629,49500,72138,112893,49500,,IMU->,0,-75,2052,2053,
19958,1583,1353,2615,1636,49500,72138,112893,49500,,IMU->,-2,-78,2049,2050,
19989,1585,1352,2561,1632,49500,72138,112893,49500,,IMU->,-2,-79,2049,2050,
19989,1576,1332,2500,1623,49500,72138,112893,49500,,IMU->,0,-80,2050,2051,
19958,1588,1309,2404,1635,49500,72138,112893,49500,,IMU->,1,-80,2049,2050,
19927,1585,1287,2297,1638,49500,72138,112893,49500,,IMU->,1,-80,2046,2047,
19958,1572,1242,2180,1633,49500,72138,112893,49500,,IMU->,-1,-78,2049,2050,
19989,1566,1220,2073,1639,49500,72138,112893,49500,,IMU->,-3,-85,2048,2049,
20324,1573,1196,2013,1620,49500,72138,112893,49500,,IMU->,0,-77,2052,2053,
19958,1577,1190,1999,1635,49500,72138,112893,49500,,IMU->,1,-78,2049,2050,
19958,1587,1191,2008,1636,49500,72138,112893,49500,,IMU->,1,-78,2049,2050,
19958,1577,1192,2067,1628,49500,72138,112893,49500,,IMU->,0,-81,2050,2051,
19958,1585,1220,2130,1634,49500,72138,112893,49500,,IMU->,-3,-77,2051,2052,
19989,1576,1246,2197,1619,49500,72138,112893,49500,,IMU->,0,-80,2046,2047,
19927,1576,1241,2248,1631,49500,72138,112893,49500,,IMU->,0,-77,2046,2047,
19958,1583,1262,2263,1644,49500,72138,112893,49500,,IMU->,2,-83,2047,2048,
19958,1580,1248,2254,1632,49500,72138,112893,49500,,IMU->,-1,-81,2045,2046,
19989,1581,1248,2248,1636,49500,72138,112893,49500,,IMU->,-3,-79,2049,2050,
20355,1577,1240,2217,1627,49500,72138,112893,49500,,IMU->,0,-78,2049,2050,
19958,1575,1222,2182,1621,49500,72138,112893,49500,,IMU->,2,-81,2051,2052,
19958,1576,1211,2140,1634,49500,72138,112893,49500,,IMU->,0,-82,2051,2052,
19958,1587,1203,2126,1631,49500,72138,112893,49500,,IMU->,0,-76,2045,2046,
19958,1576,1190,2084,1633,49500,72138,112893,49500,,IMU->,-1,-76,2048,2049,
19989,1581,1178,2034,1639,49500,72138,112893,49500,,IMU->,-1,-77,2051,2052,
19989,1585,1166,1990,1630,49500,72138,112893,49500,,IMU->,-1,-78,2046,2047,
19989,1577,1142,1929,1631,49500,72138,112893,49500,,IMU->,0,-78,2053,2054,
19927,1577,1116,1909,1630,49500,72138,112893,49500,,IMU->,0,-76,2050,2051,
19958,1571,1116,1867,1627,49500,72138,112893,49500,,IMU->,3,-78,2048,2049,
20324,1572,1108,1830,1622,49500,72138,112893,49500,,IMU->,2,-81,2049,2050,
19958,1584,1097,1819,1636,49500,72138,112893,49500,,IMU->,2,-78,2052,2053,
19958,1583,1093,1767,1637,49500,72138,112893,49500,,IMU->,1,-78,2047,2048,
19958,1578,1070,1739,1633,49500,72138,112893,49500,,IMU->,2,-76,2051,2052,
19927,1594,1060,1701,1628,49500,72138,112893,49500,,IMU->,-2,-76,2049,2050,
19989,1569,1062,1683,1614,49500,72138,112893,49500,,IMU->,-1,-78,2048,2049,
19927,1574,1044,1638,1626,49500,72138,112893,49500,,IMU->,0,-77,2051,2052,
19958,1568,1034,1613,1633,49500,72138,112893,49500,,IMU->,5,-83,2050,2051,
20324,1577,1010,1562,1627,49500,72138,112893,49500,,IMU->,1,-79,2054,2055,
19958,1586,1011,1532,1643,49500,72138,112893,49500,,IMU->,1,-80,2051,2052,
19958,1577,1008,1507,1619,49500,72138,112893,49500,,IMU->,-2,-79,2047,2048,
19958,1567,991,1504,1621,49500,72138,112893,49500,,IMU->,1,-79,2049,2050,
19927,1576,1025,1622,1637,49500,72138,112893,49500,,IMU->,0,-84,2049,2050,
19927,1583,1083,1843,1621,49500,72138,112893,49500,,IMU->,-1,-80,2049,2050,
19989,1569,1141,2108,1631,49500,72138,112893,49500,,IMU->,3,-82,2048,2049,
19958,1568,1220,2345,1627,49500,72138,112893,49500,,IMU->,0,-80,2049,2050,
20324,1600,1271,2501,1627,49500,72138,112893,49500,,IMU->,2,-76,2052,2053,
19958,1580,1302,2603,1637,49500,72138,112893,49500,,IMU->,-2,-76,2049,2050,
19989,1582,1297,2622,1631,49500,72138,112893,49500,,IMU->,0,-79,2050,2051,
19958,1575,1290,2563,1633,49500,72138,112893,49500,,IMU->,-1,-80,2053,2054,
19989,1576,1269,2477,1633,49500,72138,112893,49500,,IMU->,1,-78,2047,2048,
19958,1587,1251,2407,1631,49500,72138,112893,49500,,IMU->,-2,-79,2050,2051,
19958,1575,1233,2305,1635,49500,72138,112893,49500,,IMU->,1,-80,2052,2053,
19927,1588,1202,2238,1635,49500,72138,112893,49500,,IMU->,2,-78,2048,2049,
19958,1573,1168,2142,1624,49500,72138,112893,49500,,IMU->,3,-79,2050,2051,
20324,1566,1156,2075,1623,49500,72138,112893,49500,,IMU->,2,-81,2049,2050,
19958,1583,1153,2061,1628,49500,72138,112893,49500,,IMU->,1,-80,2045,2046,
19958,1581,1149,2049,1631,49500,72138,112893,49500,,IMU->,0,-79,2047,2048,
19958,1584,1147,2092,1637,49500,72138,112893,49500,,IMU->,-2,-79,2047,2048,
19958,1588,1168,2144,1638,49500,72138,112893,49500,,IMU->,-3,-77,2049,2050,
19958,1573,1175,2183,1622,49500,72138,112893,49500,,IMU->,2,-82,2049,2050,
19927,1581,1178,2235,1624,49500,72138,112893,49500,,IMU->,-1,-78,2048,2049,
19989,1573,1197,2258,1634,49500,72138,112893,49500,,IMU->,3,-78,2049,2050,
20324,1578,1194,2261,1627,49500,72138,112893,49500,,IMU->,0,-78,2050,2051,
19958,1582,1188,2254,1636,49500,72138,112893,49500,,IMU->,0,-79,2049,2050,
19958,1573,1189,2248,1631,49500,72138,112893,49500,,IMU->,0,-81,2049,2050,
19958,1584,1180,2189,1632,49500,72138,112893,49500,,IMU->,0,-77,2050,2051,
19958,1582,1175,2131,1625,49500,72138,112893,49500,,IMU->,0,-77,2050,2051,
19927,1578,1139,2094,1623,49500,72138,112893,49500,,IMU->,0,-81,2048,2049,
19927,1571,1130,2061,1633,49500,72138,112893,49500,,IMU->,0,-80,2049,2050,
19958,1570,1137,2041,1624,49500,72138,112893,49500,,IMU->,0,-77,2052,2053,
20324,1581,1112,2016,1631,49500,72138,112893,49500,,IMU->,1,-78,2049,2050,
19958,1583,1124,1988,1639,49500,72138,112893,49500,,IMU->,0,-78,2050,2051,
19958,1585,1098,1970,1633,49500,72138,112893,49500,,IMU->,-1,-77,2047,2048,
19989,1582,1088,1932,1636,49500,72138,112893,49500,,IMU->,-2,-80,2047,2048,
19958,1576,1089,1920,1624,49500,72138,112893,49500,,IMU->,0,-78,2048,2049,
19989,1576,1085,1929,1624,49500,72138,112893,49500,,IMU->,0,-80,2048,2049,
19958,1579,1093,1918,1635,49500,72138,112893,49500,,IMU->,3,-80,2048,2049,
19958,1583,1085,1921,1635,49500,72138,112893,49500,,IMU->,-1,-77,2049,2050,
19958,1573,1075,1906,1634,49500,72138,112893,49500,,IMU->,2,-79,2050,2051,
20324,1575,1075,1886,1629,49500,72138,112893,49500,,IMU->,1,-81,2048,2049,
19989,1588,1061,1861,1628,49500,72039,112002,49500,,IMU->,-2,-80,2051,2052,
19958,1580,1055,941,1631,49500,72039,112002,49500,,IMU->,0,-76,2051,2052,
19958,1581,1050,947,1628,49500,72039,112002,49500,,IMU->,0,-79,2046,2047,
19958,1583,1046,926,1638,49500,72039,112002,49500,,IMU->,-1,-76,2048,2049,
19958,1578,1044,915,1625,49500,72039,112002,49500,,IMU->,0,-76,2049,2050,
19958,1576,1045,957,1623,49500,72039,112002,49500,,IMU->,4,-77,2049,2050,
19958,1584,1091,1121,1631,49500,72039,112002,49500,,IMU->,4,-80,2049,2050,
19927,1574,1143,1395,1632,49500,72039,112002,49500,,IMU->,0,-82,2050,2051,
20324,1581,1217,1648,1638,49500,72039,112002,49500,,IMU->,0,-80,2050,2051,
19958,1579,1282,1880,1631,49500,72039,112002,49500,,IMU->,-1,-79,2050,2051,
19989,1587,1317,1984,1636,49500,72039,112002,49500,,IMU->,0,-82,2050,2051,
19958,1581,1322,1992,1644,49500,72039,112002,49500,,IMU->,0,-77,2049,2050,
19958,1580,1311,1982,1633,49500,72039,112002,49500,,IMU->,0,-78,2049,2050,
19958,1590,1309,1928,1637,49500,72039,112002,49500,,IMU->,2,-79,2046,2047,
19958,1578,1297,1852,1625,49500,72039,112002,49500,,IMU->,0,-79,2046,2047,
19958,1577,1260,1782,1628,49500,72039,112002,49500,,IMU->,0,-77,2050,2051,
19958,1585,1245,1691,1642,49500,72039,112002,49500,,IMU->,0,-76,2049,2050,
20324,1586,1222,1603,1629,49500,72039,112002,49500,,IMU->,0,-77,2048,2049,
19958,1578,1196,1569,1636,49500,72039,112002,49500,,IMU->,-1,-85,2052,2053,
19958,1574,1207,1532,1632,49500,72039,112002,49500,,IMU->,1,-82,2051,2052,
19958,1577,1198,1532,1628,49500,72039,112002,49500,,IMU->,0,-80,2044,2045,
19958,1581,1192,1531,1643,49500,72039,112002,49500,,IMU->,-1,-80,2047,2048,
19958,1577,1197,1580,1625,49500,72039,112002,49500,,IMU->,1,-78,2049,2050,
19958,1585,1216,1642,1642,49500,72039,112002,49500,,IMU->,1,-76,2050,2051,
19927,1576,1235,1689,1633,49500,72039,112002,49500,,IMU->,-3,-81,2049,2050,
19989,1581,1228,1697,1626,49500,72039,112002,49500,,IMU->,-3,-75,2049,2050,
20324,1578,1224,1683,1643,49500,72039,112002,49500,,IMU->,1,-80,2047,2048,
19958,1589,1217,1687,1634,49500,72039,112002,49500,,IMU->,-1,-78,2050,2051,
19989,1580,1207,1653,1634,49500,72039,112002,49500,,IMU->,0,-77,2045,2046,
19958,1577,1208,1626,1632,49500,72039,112002,49500,,IMU->,-1,-77,2048,2049,
19989,1590,1195,1593,1628,49500,72039,112002,49500,,IMU->,0,-78,2048,2049,
19958,1579,1183,1508,1631,49500,72039,112002,49500,,IMU->,-2,-78,2052,2053,
19989,1579,1151,1482,1635,49500,72039,112002,49500,,IMU->,-1,-76,2046,2047,
19989,1583,1141,1424,1638,49500,72039,112002,49500,,IMU->,0,-81,2048,2049,
19927,1581,1140,1394,1628,49500,72039,112002,49500,,IMU->,1,-81,2050,2051,
19927,1576,1129,1368,1634,49500,72039,112002,49500,,IMU->,0,-79,2050,2051,
20324,1583,1122,1337,1635,49500,72039,112002,49500,,IMU->,0,-77,2049,2050,
19958,1578,1094,1292,1628,49500,72039,112002,49500,,IMU->,1,-80,2050,2051,
19958,1578,1087,1286,1638,49500,72039,112002,49500,,IMU->,0,-75,2050,2051,
19958,1572,1095,1263,1626,49500,72039,112002,49500,,IMU->,3,-78,2051,2052,
19958,1581,1085,1251,1630,49500,72039,112002,49500,,IMU->,1,-80,2047,2048,
19958,1587,1087,1242,1650,49500,72039,112002,49500,,IMU->,1,-86,2048,2049,
19958,1580,1073,1209,1631,49500,72039,112002,49500,,IMU->,-1,-81,2052,2053,
20294,1577,1070,1201,1641,49500,72039,112002,49500,,IMU->,0,-74,2049,2050,
19958,1575,1072,1203,1618,49500,72039,112002,49500,,IMU->,-1,-73,2049,2050,
19958,1573,1058,1181,1620,49500,72039,112002,49500,,IMU->,2,-75,2048,2049,
19958,1580,1054,1135,1635,49500,72039,112002,49500,,IMU->,2,-79,2048,2049,
19958,1583,1032,1097,1628,49500,72039,112002,49500,,IMU->,-1,-81,2049,2050,
19989,1581,1027,1078,1638,49500,72039,112002,49500,,IMU->,0,-79,2048,2049,
19958,1583,1027,1049,1631,49500,72039,112002,49500,,IMU->,1,-73,2047,2048,
19927,1576,1015,1032,1628,49500,72039,112002,49500,,IMU->,0,-76,2048,2049,
20294,1567,1007,1001,1634,49500,72039,112002,49500,,IMU->,4,-77,2046,2047,
19958,1580,1010,1041,1631,49500,72039,112002,49500,,IMU->,0,-77,2052,2053,
19958,1579,1028,1130,1629,49500,72039,112002,49500,,IMU->,0,-82,2048,2049,
19958,1578,1098,1391,1636,49500,72039,112002,49500,,IMU->,0,-79,2049,2050,
19958,1591,1186,1699,1637,49500,72039,112002,49500,,IMU->,-1,-74,2048,2049,
19989,1586,1242,1930,1634,49500,72039,112002,49500,,IMU->,2,-77,2049,2050,
19958,1582,1297,2137,1630,49500,72039,112002,49500,,IMU->,-1,-81,2047,2048,
19958,1584,1317,2193,1628,49500,72039,112002,49500,,IMU->,0,-83,2046,2047,
19958,1576,1314,2158,1632,49500,72039,112002,49500,,IMU->,-1,-78,2049,2050,
20324,1586,1285,2076,1634,49500,72039,112002,49500,,IMU->,-3,-78,2050,2051,
19989,1586,1277,1980,1640,49500,72039,112002,49500,,IMU->,1,-76,2044,2045,
19958,1581,1246,1892,1635,49500,72039,112002,49500,,IMU->,1,-77,2053,2054,
19958,1588,1204,1769,1636,49500,72039,112002,49500,,IMU->,1,-81,2049,2050,
19958,1571,1180,1672,1628,49500,72039,112002,49500,,IMU->,-1,-79,2045,2046,
19958,1576,1155,1572,1627,49500,72039,112002,49500,,IMU->,0,-78,2049,2050,
19958,1591,1138,1504,1628,49500,72039,112002,49500,,IMU->,0,-79,2051,2052,
19958,1574,1113,1458,1632,49500,72039,112002,49500,,IMU->,0,-77,2050,2051,
19958,1586,1115,1463,1642,49500,72039,112002,49500,,IMU->,0,-77,2047,2048,
20294,1578,1128,1503,1627,49500,72039,112002,49500,,IMU->,1,-81,2046,2047,
19958,1571,1137,1559,1624,49500,72039,112002,49500,,IMU->,0,-79,2048,2049,
19958,1580,1154,1621,1634,49500,72039,112002,49500,,IMU->,0,-79,2048,2049,
19958,1586,1159,1651,1632,49500,72039,112002,49500,,IMU->,-1,-78,2048,2049,
19989,1578,1152,1633,1635,49500,72039,112002,49500,,IMU->,2,-82,2051,2052,
19958,1585,1150,1599,1641,49500,72039,112002,49500,,IMU->,1,-82,2049,2050,
19958,1592,1137,1567,1628,49500,72039,112002,49500,,IMU->,1,-81,2049,2050,
19958,1578,1121,1489,1635,49500,72039,112002,49500,,IMU->,1,-80,2048,2049,
19958,1576,1094,1441,1629,49500,72039,112002,49500,,IMU->,1,-78,2045,2046,
20294,1573,1066,1372,1622,49500,72039,112002,49500,,IMU->,1,-79,2050,2051,
19958,1575,1056,1308,1629,49500,72039,112002,49500,,IMU->,0,-80,2050,2051,
19958,1580,1051,1293,1630,49500,72039,112002,49500,,IMU->,-1,-80,2048,2049,
19958,1586,1042,1221,1640,49500,72039,112002,49500,,IMU->,0,-79,2049,2050,
19958,1585,1024,1182,1634,49500,72039,112002,49500,,IMU->,0,-78,2049,2050,
19958,1581,1009,1151,1628,49500,72039,112002,49500,,IMU->,3,-78,2049,2050,
19958,1565,1008,1133,1623,49500,72039,112002,49500,,IMU->,0,-76,2046,2047,
19958,1572,1011,1124,1618,49500,72039,112002,49500,,IMU->,0,-81,2051,2052,
20324,1586,998,1089,1635,49500,72039,112002,49500,,IMU->,2,-81,2048,2049,
19958,1576,994,1080,1635,49500,72039,112002,49500,,IMU->,0,-78,2047,2048,
19958,1589,982,1064,1642,49500,72039,112002,49500,,IMU->,3,-78,2050,2051,
19958,1577,979,1024,1626,49500,72039,112002,49500,,IMU->,-1,-76,2047,2048,
19989,1573,968,1014,1626,49500,72039,112002,49500,,IMU->,0,-78,2048,2049,
19958,1579,971,1003,1629,49500,72039,112002,49500,,IMU->,3,-79,2049,2050,
19958,1574,964,1003,1625,49500,72039,112002,49500,,IMU->,-2,-82,2052,2053,
19989,1579,966,1015,1635,49500,72039,112002,49500,,IMU->,1,-78,2053,2054,
19927,1575,979,1005,1628,49500,72039,112002,49500,,IMU->,-1,-81,2046,2047,
20294,1577,959,978,1624,49500,72039,112002,49500,,IMU->,0,-75,2050,2051,
19958,1584,957,947,1636,49500,72039,112002,49500,,IMU->,2,-78,2049,2050,
19958,1583,946,942,1628,49500,72039,112002,49500,,IMU->,0,-77,2047,2048,
19958,1572,936,922,1629,49500,72039,112002,49500,,IMU->,0,-79,2049,2050,
19958,1572,943,892,1630,49500,72039,112002,49500,,IMU->,0,-80,2050,2051,
19958,1577,932,902,1624,49500,72039,112002,49500,,IMU->,-1,-78,2048,2049,
19989,1578,952,958,1640,49500,72039,112002,49500,,IMU->,-1,-81,2048,2049,
20019,1576,1013,1181,1636,49500,72039,112002,49500,,IMU->,1,-81,2050,2051,
19958,1579,1077,1478,1627,49500,72039,112002,49500,,IMU->,-2,-78,2051,2052,
19989,1569,1163,1792,1629,49500,72039,112002,49500,,IMU->,-1,-76,2051,2052,
19989,1572,1241,2056,1632,49500,72039,112002,49500,,IMU->,-1,-76,2048,2049,
19989,1588,1288,2196,1641,49500,72039,112002,49500,,IMU->,-3,-79,2048,2049,
19989,1586,1309,2262,1640,49500,72039,112002,49500,,IMU->,-1,-78,2048,2049,
20355,1590,1300,2229,1642,49500,72039,112002,49500,,IMU->,2,-80,2049,2050,
19958,1580,1280,2144,1636,49500,72039,112002,49500,,IMU->,0,-79,2045,2046,
19958,1581,1245,2063,1633,49500,72039,112002,49500,,IMU->,0,-79,2048,2049,
19958,1579,1214,1951,1632,49500,72039,112002,49500,,IMU->,0,-77,2049,2050,
19958,1576,1190,1834,1635,49500,72039,112002,49500,,IMU->,2,-78,2052,2053,
19958,1585,1150,1716,1641,49500,72039,112002,49500,,IMU->,0,-77,2050,2051,
19958,1580,1132,1626,1629,49500,72039,112002,49500,,IMU->,1,-82,2047,2048,
19958,1577,1109,1560,1632,49500,72039,112002,49500,,IMU->,2,-78,2049,2050,
19958,1581,1102,1546,1642,49500,72039,112002,49500,,IMU->,0,-77,2050,2051,
20324,1582,1097,1536,1631,49500,72039,112002,49500,,IMU->,1,-79,2048,2049,
19958,1574,1091,1579,1637,49500,72039,112002,49500,,IMU->,0,-79,2050,2051,
19958,1576,1127,1633,1633,49500,72039,112002,49500,,IMU->,0,-78,2049,2050,
19958,1581,1131,1668,1629,49500,72039,112002,49500,,IMU->,-1,-82,2046,2047,
19989,1582,1141,1683,1636,49500,72039,112002,49500,,IMU->,0,-76,2052,2053,
19958,1580,1140,1669,1632,49500,72039,112002,49500,,IMU->,0,-82,2046,2047,
19958,1585,1115,1627,1635,49500,72039,112002,49500,,IMU->,0,-76,2052,2053,
19958,1571,1102,1562,1629,49500,72039,112002,49500,,IMU->,-1,-80,2051,2052,
20294,1573,1078,1495,1621,49500,72039,112002,49500,,IMU->,0,-78,2046,2047,
19958,1580,1065,1429,1636,49500,72039,112002,49500,,IMU->,0,-80,2048,2049,
19958,1579,1045,1378,1630,49500,72039,112002,49500,,IMU->,1,-79,2049,2050,
19958,1576,1020,1319,1629,49500,72039,112002,49500,,IMU->,1,-74,2050,2051,
19958,1581,1011,1238,1634,49500,72039,112002,49500,,IMU->,0,-79,2053,2054,
19958,1583,987,1184,1624,49500,72039,112002,49500,,IMU->,2,-79,2048,2049,
19958,1571,972,1133,1620,49500,72039,112002,49500,,IMU->,0,-77,2048,2049,
19958,1584,970,1115,1635,49500,72039,112002,49500,,IMU->,0,-77,2046,2047,
20294,1575,954,1072,1630,49500,72039,112002,49500,,IMU->,-1,-81,2050,2051,
19958,1569,955,1047,1620,49500,72039,112002,49500,,IMU->,0,-81,2046,2047,
19958,1573,944,1030,1623,49500,72039,112002,49500,,IMU->,1,-78,2045,2046,
19958,1569,939,1001,1634,49500,72039,112002,49500,,IMU->,-2,-80,2051,2052,
19989,1579,934,999,1629,49500,72039,112002,49500,,IMU->,0,-75,2051,2052,
19958,1580,924,990,1631,49500,72039,112002,49500,,IMU->,0,-79,2047,2048,
19958,1573,938,993,1635,49500,72039,112002,49500,,IMU->,3,-81,2049,2050,
19958,1576,934,978,1629,49500,72039,112002,49500,,IMU->,0,-81,2049,2050,
19958,1574,924,968,1628,49500,72039,112002,49500,,IMU->,3,-79,2047,2048,
20324,1573,917,945,1626,49500,72039,112002,49500,,IMU->,3,-79,2052,2053,
19958,1581,909,939,1631,49500,72039,112002,49500,,IMU->,0,-82,2048,2049,
19958,1572,907,905,1627,49500,72039,112002,49500,,IMU->,0,-75,2049,2050,
19958,1582,892,881,1630,49500,72039,112002,49500,,IMU->,0,-80,2047,2048,
19958,1581,890,846,1639,49500,72039,112002,49500,,IMU->,1,-77,2048,2049,
19958,1579,872,833,1621,49500,72039,112002,49500,,IMU->,0,-81,2045,2046,
19958,1581,881,838,1630,49500,72039,112002,49500,,IMU->,3,-76,2050,2051,
19958,1572,886,812,1631,49500,72039,112002,49500,,IMU->,2,-80,2047,2048,
19958,1572,872,805,1627,49500,72039,112002,49500,,IMU->,0,-81,2052,2053,
20324,1582,886,883,1632,49500,72072,111738,49500,,IMU->,1,-81,2048,2049,
19958,1580,944,811,1629,49500,72072,111738,49500,,IMU->,0,-81,2054,2055,
19958,1580,1013,1107,1629,49500,72072,111738,49500,,IMU->,1,-80,2052,2053,
19958,1576,1088,1327,1628,49500,72072,111738,49500,,IMU->,0,-79,2046,2047,
19958,1578,1124,1502,1624,49500,72072,111738,49500,,IMU->,0,-78,2048,2049,
19958,1579,1149,1563,1635,49500,72072,111738,49500,,IMU->,0,-77,2048,2049,
19958,1584,1152,1549,1633,49500,72072,111738,49500,,IMU->,0,-79,2051,2052,
19958,1578,1131,1491,1633,49500,72072,111738,49500,,IMU->,-3,-78,2047,2048,
20294,1575,1124,1415,1631,49500,72072,111738,49500,,IMU->,1,-81,2047,2048,
19958,1578,1093,1318,1626,49500,72072,111738,49500,,IMU->,0,-80,2054,2055,
19958,1577,1051,1191,1625,49500,72072,111738,49500,,IMU->,2,-80,2047,2048,
19958,1573,1030,1085,1632,49500,72072,111738,49500,,IMU->,-3,-81,2047,2048,
19989,1579,1009,1012,1625,49500,72072,111738,49500,,IMU->,-1,-78,2049,2050,
19989,1575,999,979,1636,49500,72072,111738,49500,,IMU->,6,-78,2047,2048,
19958,1582,992,955,1625,49500,72072,111738,49500,,IMU->,3,-77,2048,2049,
19958,1584,986,971,1630,49500,72072,111738,49500,,IMU->,1,-80,2049,2050,
19958,1572,989,1014,1630,49500,72072,111738,49500,,IMU->,3,-80,2047,2048,
19958,1564,997,1072,1624,49500,72072,111738,49500,,IMU->,0,-80,2051,2052,
20324,1570,1018,1094,1625,49500,72072,111738,49500,,IMU->,0,-82,2049,2050,
19958,1578,1017,1126,1627,49500,72072,111738,49500,,IMU->,1,-77,2049,2050,
19958,1584,1022,1096,1634,49500,72072,111738,49500,,IMU->,-1,-79,2049,2050,
19958,1578,1007,1054,1633,49500,72072,111738,49500,,IMU->,2,-77,2049,2050,
19958,1581,995,1036,1629,49500,72072,111738,49500,,IMU->,3,-79,2048,2049,
19958,1572,987,985,1624,49500,72072,111738,49500,,IMU->,1,-81,2051,2052,
19958,1563,967,941,1616,49500,72072,111738,49500,,IMU->,2,-75,2047,2048,
19958,1570,950,863,1628,49500,72072,111738,49500,,IMU->,1,-78,2047,2048,
20324,1575,933,803,1623,49500,72072,111738,49500,,IMU->,0,-78,2049,2050,
19958,1585,915,789,1632,49500,72072,111738,49500,,IMU->,1,-81,2049,2050,
19958,1576,921,746,1628,49500,72072,111738,49500,,IMU->,0,-80,2046,2047,
19958,1566,905,718,1617,49500,72072,111738,49500,,IMU->,-1,-77,2049,2050,
19989,1577,895,681,1635,49500,72072,111738,49500,,IMU->,-4,-78,2050,2051,
19989,1581,883,650,1620,49500,72072,111738,49500,,IMU->,-1,-78,2052,2053,
19958,1569,869,623,1622,49500,72072,111738,49500,,IMU->,-1,-78,2051,2052,
19958,1574,881,635,1631,49500,72072,111738,49500,,IMU->,-2,-80,2050,2051,
19989,1574,879,619,1617,49500,72072,111738,49500,,IMU->,1,-77,2046,2047,
19958,1568,869,598,1627,49500,72072,111738,49500,,IMU->,-1,-81,2050,2051,
19989,1567,863,582,1626,49500,72072,111738,49500,,IMU->,-1,-78,2049,2050,
20324,1572,849,570,1617,49500,72072,111738,49500,,IMU->,-2,-77,2046,2047,
19989,1570,853,532,1621,49500,72072,111738,49500,,IMU->,1,-77,2048,2049,
19958,1576,846,530,1628,49500,72072,111738,49500,,IMU->,1,-78,2051,2052,
19958,1580,847,516,1636,49500,72072,111738,49500,,IMU->,-4,-76,2050,2051,
19958,1575,854,521,1628,49500,72072,111738,49500,,IMU->,0,-76,2046,2047,
19958,1571,856,594,1625,49500,72072,111738,49500,,IMU->,0,-77,2048,2049,
19958,1563,901,732,1624,49500,72072,111738,49500,,IMU->,1,-77,2050,2051,
19958,1570,957,984,1615,49500,72072,111738,49500,,IMU->,2,-79,2053,2054,
19958,1574,1019,1225,1629,49500,72072,111738,49500,,IMU->,0,-79,2047,2048,
19958,1562,1077,1424,1641,49500,72072,111738,49500,,IMU->,2,-78,2048,2049,
20324,1586,1113,1539,1636,49500,72072,111738,49500,,IMU->,-1,-80,2050,2051,
19989,1577,1116,1552,1619,49500,72072,111738,49500,,IMU->,0,-78,2052,2053,
19958,1569,1108,1534,1616,49500,72072,111738,49500,,IMU->,0,-78,2050,2051,
19958,1578,1105,1455,1631,49500,72072,111738,49500,,IMU->,3,-78,2050,2051,
19958,1571,1074,1377,1624,49500,72072,111738,49500,,IMU->,-1,-78,2049,2050,
19989,1574,1046,1273,1632,49500,72072,111738,49500,,IMU->,-1,-78,2049,2050,
19989,1583,1029,1158,1639,49500,72072,111738,49500,,IMU->,0,-80,2049,2050,
19958,1578,996,1056,1622,49500,72072,111738,49500,,IMU->,0,-80,2049,2050,
19958,1575,973,989,1635,49500,72072,111738,49500,,IMU->,0,-78,2049,2050,
19958,1572,968,958,1624,49500,72072,111738,49500,,IMU->,0,-79,2049,2050,
20324,1565,941,951,1612,49500,72072,111738,49500,,IMU->,2,-80,2048,2049,
19958,1568,968,998,1632,49500,72072,111738,49500,,IMU->,3,-78,2049,2050,
19958,1583,985,1058,1621,49500,72072,111738,49500,,IMU->,-1,-79,2046,2047,
19989,1576,994,1106,1636,49500,72072,111738,49500,,IMU->,2,-78,2049,2050,
19958,1585,1011,1166,1633,49500,72072,111738,49500,,IMU->,2,-80,2047,2048,
19958,1577,1000,1166,1621,49500,72072,111738,49500,,IMU->,2,-77,2051,2052,
19958,1571,1012,1154,1621,49500,72072,111738,49500,,IMU->,-1,-76,2048,2049,
19989,1572,1005,1145,1618,49500,72072,111738,49500,,IMU->,-2,-79,2053,2054,
19958,1572,997,1084,1626,49500,72072,111738,49500,,IMU->,-3,-78,2048,2049,
19989,1573,984,1037,1633,49500,72072,111738,49500,,IMU->,0,-77,2047,2048,
19958,1573,968,988,1631,49500,72072,111738,49500,,IMU->,0,-77,2048,2049,
20324,1570,961,928,1630,49500,72072,111738,49500,,IMU->,0,-80,2051,2052,
19958,1576,938,896,1626,49500,72072,111738,49500,,IMU->,0,-78,2050,2051,
19958,1582,927,844,1626,49500,72072,111738,49500,,IMU->,1,-78,2049,2050,
19958,1569,918,801,1630,49500,72072,111738,49500,,IMU->,-2,-78,2050,2051,
19958,1581,913,803,1630,49500,72072,111738,49500,,IMU->,0,-75,2049,2050,
19958,1572,914,770,1627,49500,72072,111738,49500,,IMU->,-2,-77,2049,2050,
19989,1571,900,746,1620,49500,72072,111738,49500,,IMU->,1,-78,2048,2049,
19958,1576,886,710,1629,49500,72072,111738,49500,,IMU->,1,-80,2051,2052,
19958,1569,879,684,1623,49500,72072,111738,49500,,IMU->,1,-78,2044,2045,
20324,1573,875,689,1626,49500,72072,111738,49500,,IMU->,-1,-78,2050,2051,
19989,1578,887,670,1628,49500,72072,111738,49500,,IMU->,-1,-80,2049,2050,
19989,1577,871,675,1619,49500,72072,111738,49500,,IMU->,2,-82,2047,2048,
19958,1578,876,653,1633,49500,72072,111738,49500,,IMU->,-1,-79,2053,2054,
19989,1578,873,636,1628,49500,72072,111738,49500,,IMU->,0,-80,2050,2051,
19958,1574,852,617,1623,49500,72072,111738,49500,,IMU->,-1,-78,2050,2051,
19989,1558,850,573,1624,49500,72072,111738,49500,,IMU->,0,-78,2047,2048,
19958,1571,838,539,1616,49500,72072,111738,49500,,IMU->,1,-77,2045,2046,
19958,1575,836,537,1629,49500,72072,111738,49500,,IMU->,-2,-80,2049,2050,
19958,1575,852,563,1634,49500,72072,111738,49500,,IMU->,-1,-80,2046,2047,
19989,1570,861,663,1622,49500,72072,111738,49500,,IMU->,0,-80,2046,2047,
19958,1569,918,888,1631,49500,72072,111738,49500,,IMU->,-1,-78,2049,2050,
19989,1577,990,1165,1621,49500,72072,111738,49500,,IMU->,0,-80,2049,2050,
20324,1571,1046,1424,1625,49500,72072,111738,49500,,IMU->,-1,-79,2050,2051,
19989,1576,1110,1618,1632,49500,72072,111738,49500,,IMU->,0,-78,2051,2052,
19958,1599,1143,1702,1633,49500,72072,111738,49500,,IMU->,-1,-77,2051,2052,
19989,1574,1151,1682,1631,49500,72072,111738,49500,,IMU->,0,-79,2051,2052,
19958,1575,1131,1606,1634,49500,72072,111738,49500,,IMU->,0,-79,2046,2047,
19958,1583,1112,1515,1631,49500,72072,111738,49500,,IMU->,0,-78,2048,2049,
19958,1574,1069,1388,1627,49500,72072,111738,49500,,IMU->,0,-80,2054,2055,
19958,1577,1041,1301,1628,49500,72072,111738,49500,,IMU->,0,-83,2050,2051,
19958,1566,1016,1164,1630,49500,72072,111738,49500,,IMU->,-3,-78,2050,2051,
19989,1564,990,1091,1622,49500,72072,111738,49500,,IMU->,0,-80,2048,2049,
20324,1578,976,1042,1627,49500,72072,111738,49500,,IMU->,1,-77,2048,2049,
19958,1569,977,1028,1625,49500,72072,111738,49500,,IMU->,0,-78,2049,2050,
19958,1575,977,1062,1629,49500,72072,111738,49500,,IMU->,0,-78,2045,2046,
19958,1574,983,1108,1630,49500,72072,111738,49500,,IMU->,9,-64,2049,2050,
19958,1576,1004,1166,1622,49500,72072,111738,49500,,IMU->,3,-81,2051,2052,
19958,1582,1009,1201,1635,49500,72072,111738,49500,,IMU->,4,-83,2054,2055,
19958,1576,1019,1227,1627,49500,72072,111738,49500,,IMU->,0,-78,2047,2048,
19958,1569,1011,1224,1623,49500,72072,111738,49500,,IMU->,-3,-81,2048,2049,
19958,1572,1022,1208,1630,49500,72072,111738,49500,,IMU->,4,-75,2050,2051,
20324,1575,1010,1166,1613,49500,72072,111738,49500,,IMU->,0,-84,2048,2049,
19958,1581,998,1110,1630,49500,72072,111738,49500,,IMU->,0,-76,2049,2050,
19958,1581,992,1083,1633,49500,72072,111738,49500,,IMU->,0,-79,2047,2048,
19958,1580,970,1021,1629,49500,72072,111738,49500,,IMU->,1,-82,2047,2048,
19958,1570,951,945,1619,49500,72072,111738,49500,,IMU->,-1,-82,2050,2051,
19989,1570,925,872,1618,49500,72072,111738,49500,,IMU->,-1,-79,2049,2050,
19958,1575,907,831,1627,49500,72072,111738,49500,,IMU->,1,-78,2046,2047,
19958,1575,906,788,1625,49500,72072,111738,49500,,IMU->,3,-80,2049,2050,
19958,1578,896,767,1624,49500,72072,111738,49500,,IMU->,1,-78,2044,2045,
20324,1572,891,729,1628,49500,72072,111738,49500,,IMU->,-1,-75,2049,2050,
19989,1575,878,685,1620,49500,72072,111738,49500,,IMU->,-2,-78,2048,2049,
19989,1580,870,672,1628,49500,72072,111738,49500,,IMU->,0,-81,2051,2052,
19958,1572,864,664,1631,49500,72072,111738,49500,,IMU->,0,-84,2048,2049,
19958,1576,858,654,1620,49500,72072,111738,49500,,IMU->,0,-74,2047,2048,
19958,1565,864,634,1625,49500,72072,111738,49500,,IMU->,0,-76,2051,2052,
19958,1572,865,628,1622,49500,72072,111738,49500,,IMU->,1,-76,2048,2049,
19958,1580,857,613,1627,49500,72072,111738,49500,,IMU->,7,-84,2050,2051,
19958,1569,847,593,1625,49500,72072,111738,49500,,IMU->,1,-74,2046,2047,
19958,1571,834,578,1629,49500,72072,111738,49500,,IMU->,-1,-80,2048,2049,
19989,1575,832,520,1628,49500,72072,111738,49500,,IMU->,1,-77,2047,2048,
20324,1570,820,483,1617,49500,72072,111738,49500,,IMU->,5,-63,2053,2053,
19958,1574,808,463,1625,49500,72072,111738,49500,,IMU->,0,-78,2047,2048,
19958,1573,804,425,1627,49500,72072,111738,49500,,IMU->,3,-76,2046,2047,
19958,1576,784,407,1630,49500,72072,111738,49500,,IMU->,0,-79,2046,2047,
19958,1570,797,389,1622,49500,72072,111738,49500,,IMU->,0,-84,2049,2050,
19958,1564,810,466,1618,49500,72072,111738,49500,,IMU->,-1,-80,2048,2049,
19989,1578,856,646,1627,49500,72072,111738,49500,,IMU->,0,-76,2045,2046,
19958,1578,934,931,1630,49500,72072,111738,49500,,IMU->,-2,-78,2047,2048,
19989,1572,985,1199,1630,49500,72072,111738,49500,,IMU->,2,-77,2045,2046,
19958,1557,1062,1441,1632,49500,72072,111738,49500,,IMU->,0,-80,2050,2051,
20324,1576,1106,1571,1620,49500,72072,111738,49500,,IMU->,-1,-78,2047,2048,
19989,1587,1112,1598,1631,49500,72072,111738,49500,,IMU->,0,-74,2048,2049,
19958,1580,1112,1543,1633,49500,72072,111738,49500,,IMU->,-2,-78,2051,2052,
19989,1583,1084,1449,1634,49500,72072,111738,49500,,IMU->,0,-76,2049,2050,
19958,1586,1065,1334,1638,49500,72072,111738,49500,,IMU->,-3,-78,2050,2051,
19989,1573,1034,1223,1623,49500,72072,111738,49500,,IMU->,-3,-75,2049,2050,
19958,1575,1001,1102,1628,49500,72072,111738,49500,,IMU->,1,-83,2049,2050,
19958,1572,973,985,1627,49500,72072,111738,49500,,IMU->,3,-80,2048,2049,
19958,1576,939,912,1620,49500,72072,111738,49500,,IMU->,3,-81,2051,2052,
19958,1565,928,861,1628,49500,72072,111738,49500,,IMU->,1,-79,2051,2052,
20324,1579,933,870,1628,49500,72072,111738,49500,,IMU->,0,-78,2050,2051,
19958,1589,943,916,1631,49500,72204,111903,49500,,IMU->,0,-75,2052,2053,
19958,1581,1104,1113,1630,49500,72204,111903,49500,,IMU->,2,-76,2048,2049,
19958,1575,1118,1176,1628,49500,72204,111903,49500,,IMU->,1,-81,2051,2052,
19958,1571,1125,1209,1628,49500,72204,111903,49500,,IMU->,-2,-78,2052,2053,
19989,1571,1137,1238,1615,49500,72204,111903,49500,,IMU->,0,-80,2048,2049,
19958,1573,1134,1205,1625,49500,72204,111903,49500,,IMU->,0,-82,2048,2049,
19958,1578,1133,1185,1632,49500,72204,111903,49500,,IMU->,0,-77,2050,2051,
19958,1581,1119,1138,1631,49500,72204,111903,49500,,IMU->,0,-79,2048,2049,
20324,1573,1099,1073,1628,49500,72204,111903,49500,,IMU->,-1,-78,2050,2051,
19989,1571,1083,1017,1619,49500,72204,111903,49500,,IMU->,1,-77,2050,2051,
19958,1576,1067,962,1619,49500,72204,111903,49500,,IMU->,2,-77,2046,2047,
19958,1571,1062,923,1624,49500,72204,111903,49500,,IMU->,-2,-77,2047,2048,
19958,1576,1049,896,1628,49500,72204,111903,49500,,IMU->,0,-79,2048,2049,
19958,1582,1040,811,1634,49500,72204,111903,49500,,IMU->,1,-76,2047,2048,
19958,1574,1025,772,1612,49500,72204,111903,49500,,IMU->,1,-80,2052,2053,
19958,1577,1004,750,1626,49500,72204,111903,49500,,IMU->,0,-80,2050,2051,
19958,1573,1007,704,1629,49500,72204,111903,49500,,IMU->,0,-79,2051,2052,
19958,1564,979,682,1619,49500,72204,111903,49500,,IMU->,2,-77,2047,2048,
20324,1574,984,659,1642,49500,72204,111903,49500,,IMU->,1,-78,2050,2051,
19958,1582,994,642,1626,49500,72204,111903,49500,,IMU->,2,-81,2050,2051,
19958,1584,974,618,1629,49500,72204,111903,49500,,IMU->,0,-82,2046,2047,
19958,1580,969,582,1632,49500,72204,111903,49500,,IMU->,-1,-80,2048,2049,
19958,1570,955,567,1610,49500,72204,111903,49500,,IMU->,0,-78,2050,2051,
19958,1564,955,566,1625,49500,72204,111903,49500,,IMU->,0,-81,2048,2049,
19958,1566,961,549,1618,49500,72204,111903,49500,,IMU->,1,-75,2046,2047,
19958,1572,948,538,1624,49500,72204,111903,49500,,IMU->,2,-75,2048,2049,
20324,1575,952,507,1636,49500,72204,111903,49500,,IMU->,-1,-78,2053,2054,
19989,1581,945,496,1629,49500,72204,111903,49500,,IMU->,2,-79,2047,2048,
19958,1568,930,463,1627,49500,72204,111903,49500,,IMU->,1,-76,2048,2049,
19958,1570,930,453,1617,49500,72204,111903,49500,,IMU->,0,-79,2051,2052,
19958,1576,922,427,1618,49500,72204,111903,49500,,IMU->,4,-80,2047,2048,
19958,1562,920,399,1624,49500,72204,111903,49500,,IMU->,1,-76,2048,2049,
19958,1581,914,402,1627,49500,72204,111903,49500,,IMU->,-2,-81,2049,2050,
19989,1581,915,359,1631,49500,72204,111903,49500,,IMU->,-2,-77,2047,2048,
19958,1566,905,333,1620,49500,72204,111903,49500,,IMU->,1,-77,2047,2048,
19958,1577,894,307,1626,49500,72204,111903,49500,,IMU->,-1,-78,2047,2048,
19989,1574,901,288,1619,49500,72204,111903,49500,,IMU->,-2,-78,2051,2052,
20324,1569,882,311,1622,49500,72204,111903,49500,,IMU->,-1,-79,2050,2051,
19989,1575,916,424,1629,49500,72204,111903,49500,,IMU->,-4,-75,2048,2049,
19958,1576,981,658,1623,49500,72204,111903,49500,,IMU->,1,-82,2048,2049,
19958,1579,1054,952,1634,49500,72204,111903,49500,,IMU->,5,-80,2052,2053,
19958,1574,1134,1212,1629,49500,72204,111903,49500,,IMU->,3,-83,2051,2052,
19958,1572,1176,1408,1624,49500,72204,111903,49500,,IMU->,1,-79,2049,2050,
19958,1573,1213,1503,1629,49500,72204,111903,49500,,IMU->,0,-77,2047,2048,
19958,1571,1210,1481,1614,49500,72204,111903,49500,,IMU->,1,-78,2053,2054,
19958,1565,1184,1395,1629,49500,72204,111903,49500,,IMU->,0,-78,2045,2046,
20324,1582,1175,1276,1637,49500,72204,111903,49500,,IMU->,0,-77,2051,2052,
19958,1577,1131,1169,1628,49500,72204,111903,49500,,IMU->,0,-79,2045,2046,
19958,1576,1103,1044,1630,49500,72204,111903,49500,,IMU->,0,-74,2048,2049,
19958,1573,1076,925,1621,49500,72204,111903,49500,,IMU->,1,-76,2048,2049,
19958,1571,1035,799,1617,49500,72204,111903,49500,,IMU->,0,-78,2050,2051,
19958,1571,1023,717,1631,49500,72204,111903,49500,,IMU->,-1,-85,2048,2049,
19958,1579,1020,736,1626,49500,72204,111903,49500,,IMU->,-1,-78,2050,2051,
19989,1566,1009,726,1626,49500,72204,111903,49500,,IMU->,3,-77,2053,2054,
19958,1571,1028,772,1624,49500,72204,111903,49500,,IMU->,0,-80,2049,2050,
20324,1581,1034,841,1620,49500,72204,111903,49500,,IMU->,2,-76,2047,2048,
19958,1567,1053,900,1624,49500,72204,111903,49500,,IMU->,-2,-79,2050,2051,
19958,1577,1063,947,1631,49500,72204,111903,49500,,IMU->,2,-82,2048,2049,
19958,1576,1077,955,1631,49500,72204,111903,49500,,IMU->,1,-81,2048,2049,
19958,1572,1084,961,1624,49500,72204,111903,49500,,IMU->,1,-77,2046,2047,
19958,1575,1081,925,1630,49500,72204,111903,49500,,IMU->,2,-76,2048,2049,
19958,1573,1070,876,1622,49500,72204,111903,49500,,IMU->,3,-76,2051,2052,
19958,1567,1037,810,1622,49500,72204,111903,49500,,IMU->,2,-81,2053,2054,
19958,1564,1026,755,1624,49500,72204,111903,49500,,IMU->,1,-81,2045,2046,
20324,1567,1018,713,1613,49500,72204,111903,49500,,IMU->,2,-80,2050,2051,
19958,1579,1009,671,1626,49500,72204,111903,49500,,IMU->,1,-76,2043,2044,
19958,1574,1001,625,1628,49500,72204,111903,49500,,IMU->,2,-75,2047,2048,
19958,1571,963,567,1630,49500,72204,111903,49500,,IMU->,1,-74,2047,2048,
19958,1577,966,517,1627,49500,72204,111903,49500,,IMU->,0,-79,2050,2051,
19958,1566,953,487,1611,49500,72204,111903,49500,,IMU->,1,-76,2048,2049,
19958,1565,943,476,1620,49500,72204,111903,49500,,IMU->,0,-78,2046,2047,
19958,1567,961,461,1635,49500,72204,111903,49500,,IMU->,-1,-76,2051,2052,
19989,1584,945,450,1619,49500,72204,111903,49500,,IMU->,4,-77,2045,2046,
20324,1571,940,440,1635,49500,72204,111903,49500,,IMU->,4,-81,2046,2047,
19958,1578,946,435,1619,49500,72204,111903,49500,,IMU->,1,-77,2047,2048,
19958,1573,935,418,1617,49500,72204,111903,49500,,IMU->,-3,-79,2051,2052,
19989,1568,945,423,1628,49500,72204,111903,49500,,IMU->,1,-80,2053,2054,
19958,1574,933,413,1617,49500,72204,111903,49500,,IMU->,2,-74,2047,2048,
19958,1567,926,383,1621,49500,72204,111903,49500,,IMU->,2,-77,2050,2051,
19958,1571,929,360,1619,49500,72204,111903,49500,,IMU->,0,-75,2048,2049,
19958,1573,925,348,1621,49500,72204,111903,49500,,IMU->,2,-80,2048,2049,
19958,1565,913,310,1630,49500,72204,111903,49500,,IMU->,-1,-81,2050,2051,
19989,1575,901,281,1621,49500,72204,111903,49500,,IMU->,1,-79,2053,2054,
20324,1575,890,221,1624,49500,72204,111903,49500,,IMU->,2,-76,2049,2050,
19958,1572,873,205,1621,49500,72204,111903,49500,,IMU->,2,-77,2051,2052,
19958,1571,881,179,1619,49500,72204,111903,49500,,IMU->,-1,-81,2051,2052,
19989,1566,874,149,1625,49500,72204,111903,49500,,IMU->,-1,-81,2048,2049,
19989,1569,870,189,1631,49500,72204,111903,49500,,IMU->,-3,-80,2049,2050,
19989,1575,909,336,1628,49500,72204,111903,49500,,IMU->,0,-82,2049,2050,
19958,1563,975,576,1614,49500,72204,111903,49500,,IMU->,1,-76,2052,2053,
19958,1573,1050,890,1624,49500,72204,111903,49500,,IMU->,0,-76,2055,2056,
19958,1581,1129,1123,1632,49500,72204,111903,49500,,IMU->,-3,-80,2050,2051,
19958,1572,1167,1279,1631,49500,72204,111903,49500,,IMU->,-2,-78,2050,2051,
19989,1583,1189,1325,1634,49500,72204,111903,49500,,IMU->,0,-77,2046,2047,
20324,1572,1192,1290,1616,49500,72204,111903,49500,,IMU->,1,-77,2048,2049,
19958,1573,1167,1200,1617,49500,72204,111903,49500,,IMU->,0,-76,2051,2052,
19958,1583,1144,1072,1631,49500,72204,111903,49500,,IMU->,-1,-80,2051,2052,
19989,1578,1096,956,1620,49500,72204,111903,49500,,IMU->,1,-79,2051,2052,
19958,1573,1067,831,1628,49500,72204,111903,49500,,IMU->,0,-86,2052,2053,
19958,1569,1047,709,1619,49500,72204,111903,49500,,IMU->,3,-80,2050,2051,
19989,1571,1019,633,1617,49500,72204,111903,49500,,IMU->,-2,-76,2050,2051,
19989,1572,1005,570,1632,49500,72204,111903,49500,,IMU->,2,-78,2052,2053,
19958,1575,992,576,1622,49500,72204,111903,49500,,IMU->,0,-80,2048,2049,
19958,1569,991,599,1627,49500,72204,111903,49500,,IMU->,-2,-78,2054,2055,
19989,1560,1019,656,1624,49500,72204,111903,49500,,IMU->,-1,-76,2048,2049,
20324,1577,1032,711,1618,49500,72204,111903,49500,,IMU->,1,-73,2054,2055,
19958,1575,1056,773,1626,49500,72204,111903,49500,,IMU->,-50,-23,2129,2129,
19989,1570,1054,813,1629,49500,72204,111903,49500,,IMU->,17,-76,2004,2005,
19989,1572,1067,808,1631,49500,72204,111903,49500,,IMU->,6,-100,1973,1975,
19989,1577,1076,818,1629,49500,72204,111903,49500,,IMU->,0,-100,2021,2023,
19989,1585,1058,764,1626,49500,72204,111903,49500,,IMU->,-9,-75,2094,2095,
19989,1575,1041,698,1630,49500,72204,111903,49500,,IMU->,-8,-88,2068,2069,
19958,1577,1033,667,1630,49500,72204,111903,49500,,IMU->,-9,-105,2019,2021,
19989,1579,1023,624,1633,49500,72204,111903,49500,,IMU->,-7,-122,2015,2018,
19989,1567,1016,575,1618,49500,72204,111903,49500,,IMU->,0,-94,2042,2044,
19958,1573,997,517,1626,49500,72204,111903,49500,,IMU->,3,-71,2091,2092,
19958,1580,985,491,1633,49500,72204,111903,49500,,IMU->,3,-74,2067,2068,
19958,1579,980,474,1628,49500,72204,111903,49500,,IMU->,2,-90,2026,2027,
19958,1572,965,443,1631,49500,72204,111903,49500,,IMU->,0,-82,2043,2044,
20324,1569,955,386,1619,49500,72204,111903,49500,,IMU->,4,-85,2055,2056,
19958,1576,941,357,1622,49500,72204,111903,49500,,IMU->,3,-80,2061,2062,
19958,1574,950,347,1626,49500,72204,111903,49500,,IMU->,-1,-82,2047,2048,
19958,1581,946,363,1629,49500,72204,111903,49500,,IMU->,0,-86,2035,2036,
19958,1579,947,349,1629,49500,72204,111903,49500,,IMU->,-1,-88,2047,2048,
19989,1575,952,353,1622,49500,72204,111903,49500,,IMU->,1,-80,2041,2042,
19958,1576,952,384,1625,49500,72204,111903,49500,,IMU->,0,-60,2096,2096,
19958,1570,960,365,1632,49500,72204,111903,49500,,IMU->,0,-78,2050,2051,
19958,1567,946,367,1620,49500,72204,111903,49500,,IMU->,2,-85,2047,2048,
20324,1575,943,352,1629,49500,72204,111903,49500,,IMU->,1,-79,2051,2052,
19958,1577,951,332,1628,49500,72204,111903,49500,,IMU->,3,-74,2050,2051,
19958,1580,935,294,1622,49500,72204,111903,49500,,IMU->,0,-77,2052,2053,
19958,1575,924,242,1634,49500,72204,111903,49500,,IMU->,3,-75,2047,2048,
19958,1572,902,222,1624,49500,72204,111903,49500,,IMU->,1,-77,2050,2051,
19958,1572,894,190,1620,49500,72204,111903,49500,,IMU->,-2,-82,2050,2051,
19989,1566,898,187,1614,49500,72204,111903,49500,,IMU->,1,-80,2048,2049,
19958,1571,898,167,1622,49500,72204,111903,49500,,IMU->,1,-75,2047,2048,
19958,1574,905,215,1625,49500,72204,111903,49500,,IMU->,0,-74,2049,2050,
20324,1575,947,404,1623,49500,72204,111903,49500,,IMU->,-1,-81,2048,2049,
19989,1575,1025,705,1624,49500,72204,111903,49500,,IMU->,0,-83,2053,2054,
19958,1565,1117,1048,1628,49500,72204,111903,49500,,IMU->,1,-78,2047,2048,
19958,1572,1183,1303,1626,49500,72204,111903,49500,,IMU->,2,-82,2050,2051,
19958,1576,1244,1474,1635,49500,72204,111903,49500,,IMU->,3,-80,2048,2049,
19958,1584,1263,1533,1635,49500,72204,111903,49500,,IMU->,4,-80,2049,2050,
19958,1583,1255,1498,1642,49500,72204,111903,49500,,IMU->,0,-77,2051,2052,
19958,1572,1243,1410,1632,49500,72204,111903,49500,,IMU->,0,-76,2049,2050,
19958,1576,1219,1322,1624,49500,72204,111903,49500,,IMU->,-2,-79,2047,2048,
19989,1582,1189,1192,1628,49500,72204,111903,49500,,IMU->,0,-79,2052,2053,
20324,1574,1144,1072,1624,49500,72204,111903,49500,,IMU->,2,-75,2053,2054,
19958,1585,1125,994,1635,49500,72204,111903,49500,,IMU->,0,-78,2045,2046,
19958,1576,1117,906,1624,49500,72204,111903,49500,,IMU->,50,-72,2048,2049,
19958,1577,1092,859,1624,49500,72303,112299,49500,,IMU->,-4,-80,2049,2050,
19958,1578,1089,1281,1631,49500,72303,112299,49500,,IMU->,-6,-77,2047,2048,
19958,1566,1087,1304,1624,49500,72303,112299,49500,,IMU->,0,-78,2049,2050,
19958,1575,1088,1350,1631,49500,72303,112299,49500,,IMU->,3,-78,2053,2054,
19958,1567,1113,1399,1624,49500,72303,112299,49500,,IMU->,29,-73,2045,2046,
19989,1568,1131,1450,1632,49500,72303,112299,49500,,IMU->,74,-99,2036,2039,
19989,1586,1274,1891,1638,49500,72303,112299,49500,,IMU->,30,-56,2042,2042,
19989,1580,1283,2063,1625,49500,72303,112299,49500,,IMU->,54,-77,2050,2052,
19989,1568,1287,2119,1633,49500,72303,112299,49500,,IMU->,-43,-85,2050,2052,
20355,1573,1271,2042,1626,49500,72303,112299,49500,,IMU->,-89,-69,2050,2053,
19989,1569,1194,1892,1615,49500,72303,112299,49500,,IMU->,-19,-78,2049,2050,
19989,1575,1196,1860,1637,49500,72303,112299,49500,,IMU->,13,-76,2052,2053,
19989,1581,1211,1853,1627,49500,72303,112299,49500,,IMU->,18,-81,2048,2049,
19989,1577,1151,1680,1629,49500,72303,112299,49500,,IMU->,20,-86,2050,2051,
19989,1574,1097,1484,1628,49500,72303,112299,49500,,IMU->,19,-91,2046,2048,
19989,1571,1056,1339,1615,49500,72303,112299,49500,,IMU->,29,-87,2051,2053,
19989,1561,1042,1279,1616,49500,72303,112299,49500,,IMU->,13,-79,2046,2047,
19989,1572,1026,1197,1621,49500,72303,112299,49500,,IMU->,-9,-66,2044,2045,
19989,1572,974,1053,1624,49500,72303,112299,49500,,IMU->,7,-72,2050,2051,
19958,1562,955,941,1620,49500,72303,112299,49500,,IMU->,12,-64,2050,2051,
19989,1578,953,917,1619,49500,72303,112299,49500,,IMU->,-43,-71,2045,2046,
19989,1569,921,781,1622,49500,72303,112299,49500,,IMU->,-86,-74,2049,2052,
19989,1568,850,610,1616,49500,72303,112299,49500,,IMU->,-104,-69,2053,2056,
19989,1569,804,494,1621,49500,72303,112299,49500,,IMU->,-43,-88,2044,2046,
19989,1565,802,490,1617,49500,72303,112299,49500,,IMU->,-8,-84,2048,2049,
19989,1564,844,560,1618,49500,72303,112299,49500,,IMU->,-2,-75,2050,2051,
19989,1568,848,527,1627,49500,72303,112299,49500,,IMU->,-4,-78,2049,2050,
19989,1567,828,493,1619,49500,72303,112299,49500,,IMU->,0,-81,2049,2050,
19958,1567,830,505,1626,49500,72303,112299,49500,,IMU->,2,-79,2051,2052,
19958,1554,840,489,1614,49500,72303,112299,49500,,IMU->,0,-78,2049,2050,
20324,1561,828,467,1612,49500,72303,112299,49500,,IMU->,0,-84,2051,2052,
19958,1577,840,475,1630,49500,72303,112299,49500,,IMU->,0,-82,2047,2048,
19958,1571,831,450,1618,49500,72303,112299,49500,,IMU->,1,-78,2050,2051,
19958,1567,810,409,1628,49500,72303,112299,49500,,IMU->,2,-82,2049,2050,
19958,1565,801,383,1620,49500,72303,112299,49500,,IMU->,1,-80,2049,2050,
19958,1567,789,350,1601,49500,72303,112299,49500,,IMU->,-3,-80,2044,2045,
19958,1555,789,326,1621,49500,72303,112299,49500,,IMU->,-5,-75,2048,2049,
19989,1568,796,332,1620,49500,72303,112299,49500,,IMU->,-7,-69,2050,2051,
19989,1562,779,362,1620,49500,72303,112299,49500,,IMU->,-5,-87,2043,2044,
19989,1550,848,548,1626,49500,72303,112299,49500,,IMU->,0,-90,2048,2049,
20324,1581,932,871,1620,49500,72303,112299,49500,,IMU->,10,-77,2051,2052,
19958,1568,1019,1207,1615,49500,72303,112299,49500,,IMU->,4,-86,2045,2046,
19958,1565,1091,1483,1616,49500,72303,112299,49500,,IMU->,0,-88,2050,2051,
19958,1570,1150,1695,1622,49500,72303,112299,49500,,IMU->,0,-79,2047,2048,
19958,1569,1174,1721,1629,49500,72303,112299,49500,,IMU->,-32,-37,2050,2050,
19989,1578,1125,1628,1626,49500,72303,112299,49500,,IMU->,-125,-33,2043,2047,
19989,1581,1092,1504,1634,49500,72303,112299,49500,,IMU->,-62,-67,2048,2050,
19989,1575,1067,1407,1631,49500,72303,112299,49500,,IMU->,-17,-52,2050,2050,
19989,1582,1046,1309,1615,49500,72303,112299,49500,,IMU->,-28,-52,2048,2048,
19989,1563,1005,1173,1612,49500,72303,112299,49500,,IMU->,-45,-90,2050,2052,
19989,1567,963,1067,1617,49500,72303,112299,49500,,IMU->,-16,-89,2048,2049,
19989,1573,961,992,1626,49500,72303,112299,49500,,IMU->,-16,-59,2051,2051,
19989,1562,942,923,1618,49500,72303,112299,49500,,IMU->,-35,-58,2050,2051,
19989,1570,931,896,1629,49500,72303,112299,49500,,IMU->,-54,-96,2050,2052,
19989,1574,916,886,1621,49500,72303,112299,49500,,IMU->,0,-63,2054,2054,
19958,1561,913,937,1621,49500,72303,112299,49500,,IMU->,20,-46,2042,2042,
19989,1583,961,991,1643,49500,72303,112299,49500,,IMU->,22,-91,2054,2056,
20324,1583,965,1044,1628,49500,72303,112299,49500,,IMU->,16,-92,2049,2051,
19958,1578,962,1082,1626,49500,72303,112299,49500,,IMU->,11,-49,2048,2048,
19989,1580,976,1083,1634,49500,72303,112299,49500,,IMU->,0,-73,2052,2053,
19958,1581,975,1071,1629,49500,72303,112299,49500,,IMU->,-46,-73,2050,2051,
19989,1584,955,999,1636,49500,72303,112299,49500,,IMU->,52,-87,2048,2050,
19958,1581,947,960,1630,49500,72303,112299,49500,,IMU->,0,-56,2043,2043,
19958,1573,912,873,1624,49500,72303,112299,49500,,IMU->,-17,-63,2051,2052,
19989,1579,891,796,1629,49500,72303,112299,49500,,IMU->,-56,-81,2049,2051,
19958,1574,868,718,1621,49500,72303,112299,49500,,IMU->,-53,-63,2048,2049,
19989,1567,827,613,1630,49500,72303,112299,49500,,IMU->,14,-66,2051,2052,
19958,1574,800,564,1634,49500,72303,112299,49500,,IMU->,20,-83,2048,2049,
20324,1584,778,497,1635,49500,72303,112299,49500,,IMU->,15,-83,2051,2052,
19989,1574,760,408,1636,49500,72303,112299,49500,,IMU->,-4,-80,2051,2052,
19989,1587,735,368,1638,49500,72303,112299,49500,,IMU->,11,-72,2048,2049,
19989,1593,740,314,1641,49500,72303,112299,49500,,IMU->,29,-85,2054,2055,
19989,1586,720,268,1645,49500,72303,112299,49500,,IMU->,11,-110,2050,2052,
19989,1588,706,248,1639,49500,72303,112299,49500,,IMU->,2,-108,2052,2054,
19989,1572,712,208,1629,49500,72303,112299,49500,,IMU->,12,-76,2046,2047,
19989,1584,691,181,1627,49500,72303,112299,49500,,IMU->,-4,-59,2049,2049,
19989,1586,684,138,1632,49500,72303,112299,49500,,IMU->,20,-88,2049,2050,
19989,1572,683,153,1627,49500,72303,112299,49500,,IMU->,65,-113,2047,2051,
19958,1579,715,212,1632,49500,72303,112299,49500,,IMU->,112,-147,2051,2059,
19989,1575,757,287,1624,49500,72303,112299,49500,,IMU->,148,-161,2057,2068,
19989,1569,791,396,1620,49500,72303,112299,49500,,IMU->,73,-143,2049,2055,
19989,1572,779,305,1628,49500,72303,112299,49500,,IMU->,7,-89,2052,2053,
19958,1574,711,194,1618,49500,72303,112299,49500,,IMU->,0,-90,2052,2053,
19958,1570,692,178,1624,49500,72303,112299,49500,,IMU->,-3,-79,2048,2049,
19989,1562,698,152,1621,49500,72303,112299,49500,,IMU->,-5,-77,2044,2045,
19958,1553,678,108,1616,49500,72303,112299,49500,,IMU->,-5,-77,2048,2049,
20324,1573,669,68,1630,49500,72303,112299,49500,,IMU->,1,-77,2055,2056,
19958,1571,649,19,1623,49500,72303,112299,49500,,IMU->,6,-73,2051,2052,
19958,1571,616,0,1621,49500,72303,112299,49500,,IMU->,3,-70,2051,2052,
19958,1572,620,0,1627,49500,72303,112299,49500,,IMU->,-3,-77,2049,2050,
19958,1575,614,0,1609,49500,72303,112299,49500,,IMU->,-5,-83,2047,2048,
19989,1577,600,0,1626,49500,72303,112299,49500,,IMU->,3,-80,2050,2051,
19958,1572,587,2,1625,49500,72303,112299,49500,,IMU->,6,-87,2048,2049,
19958,1572,584,1,1622,49500,72303,112299,49500,,IMU->,14,-88,2051,2052,
19989,1555,596,0,1626,49500,72303,112299,49500,,IMU->,3,-79,2047,2048,
19958,1574,652,101,1637,49500,72303,112299,49500,,IMU->,6,-88,2050,2051,
20324,1572,749,449,1624,49500,72303,112299,49500,,IMU->,7,-85,2052,2053,
19958,1571,841,792,1624,49500,72303,112299,49500,,IMU->,7,-75,2049,2050,
19958,1574,905,1046,1628,49500,72303,112299,49500,,IMU->,269,-159,2055,2078,
19989,1565,1014,1298,1625,49500,72303,112299,49500,,IMU->,98,-110,2055,2060,
19989,1564,1003,1308,1628,49500,72303,112299,49500,,IMU->,42,-84,2049,2051,
19989,1575,986,1245,1631,49500,72303,112299,49500,,IMU->,11,-80,2045,2046,
19989,1578,970,1187,1632,49500,72303,112299,49500,,IMU->,14,-90,2049,2051,
19989,1578,942,1099,1622,49500,72303,112299,49500,,IMU->,10,-88,2049,2050,
19989,1571,915,971,1630,49500,72303,112299,49500,,IMU->,4,-82,2049,2050,
19958,1572,858,820,1627,49500,72303,112299,49500,,IMU->,-17,-92,2050,2052,
19989,1573,803,665,1632,49500,72303,112299,49500,,IMU->,-31,-73,2051,2052,
19989,1569,767,552,1629,49500,72303,112299,49500,,IMU->,-36,-65,2048,2049,
19989,1581,736,462,1630,49500,72303,112299,49500,,IMU->,-45,-67,2047,2048,
19958,1578,728,419,1633,49500,72303,112299,49500,,IMU->,-35,-57,2049,2050,
19989,1580,722,421,1622,49500,72303,112299,49500,,IMU->,-8,-73,2048,2049,
20324,1582,754,484,1633,49500,72303,112299,49500,,IMU->,9,-79,2048,2049,
19958,1578,794,569,1627,49500,72303,112299,49500,,IMU->,29,-79,2045,2046,
19989,1566,794,618,1622,49500,72303,112299,49500,,IMU->,3,-82,2049,2050,
19958,1572,813,644,1628,49500,72303,112299,49500,,IMU->,-3,-90,2048,2049,
19989,1578,813,681,1620,49500,72303,112299,49500,,IMU->,16,-91,2054,2056,
19989,1576,828,700,1627,49500,72303,112299,49500,,IMU->,40,-95,2048,2050,
19989,1575,841,699,1628,49500,72303,112299,49500,,IMU->,45,-89,2046,2048,
19989,1574,823,665,1625,49500,72303,112299,49500,,IMU->,23,-79,2047,2048,
19989,1566,818,611,1624,49500,72303,112299,49500,,IMU->,15,-89,2052,2053,
19989,1569,821,588,1614,49500,72303,112299,49500,,IMU->,35,-90,2047,2049,
19989,1581,822,582,1623,49500,72303,112299,49500,,IMU->,56,-87,2050,2052,
19989,1574,833,564,1622,49500,72303,112299,49500,,IMU->,10,-67,2048,2049,
19989,1567,793,515,1615,49500,72303,112299,49500,,IMU->,-3,-81,2052,2053,
19958,1554,782,454,1621,49500,72303,112299,49500,,IMU->,-25,-101,2046,2048,
19989,1561,769,426,1608,49500,72303,112299,49500,,IMU->,-15,-79,2049,2050,
19989,1559,759,402,1614,49500,72303,112299,49500,,IMU->,-29,-49,2049,2049,
19989,1554,754,379,1619,49500,72303,112299,49500,,IMU->,-65,-57,2052,2053,
19989,1566,721,314,1626,49500,72303,112299,49500,,IMU->,-108,-65,2048,2051,
19989,1574,675,189,1627,49500,72303,112299,49500,,IMU->,-149,-62,2046,2052,
19989,1575,631,83,1611,49500,72303,112299,49500,,IMU->,-26,-82,2054,2055,
19989,1564,641,106,1618,49500,72303,112299,49500,,IMU->,-10,-79,2049,2050,
20355,1558,682,175,1611,49500,72303,112299,49500,,IMU->,-3,-81,2048,2049,
19989,1565,662,151,1611,49500,72303,112299,49500,,IMU->,-3,-79,2045,2046,
19989,1567,664,129,1618,49500,72303,112299,49500,,IMU->,0,-80,2052,2053,
19958,1575,664,118,1618,49500,72303,112299,49500,,IMU->,-5,-80,2045,2046,
19989,1572,663,107,1616,49500,72303,112299,49500,,IMU->,0,-81,2048,2049,
19958,1567,674,129,1615,49500,72303,112299,49500,,IMU->,2,-82,2050,2051,
19958,1564,666,110,1611,49500,72303,112299,49500,,IMU->,5,-87,2049,2050,
19958,1552,649,65,1607,49500,72303,112299,49500,,IMU->,8,-86,2048,2049,
19958,1551,635,36,1604,49500,72303,112299,49500,,IMU->,2,-78,2051,2052,
19958,1564,622,13,1616,49500,72303,112299,49500,,IMU->,1,-86,2048,2049,
19958,1561,613,3,1620,49500,72303,112299,49500,,IMU->,-10,-78,2048,2049,
20324,1570,561,0,1614,49500,72303,112299,49500,,IMU->,-51,-64,2053,2054,
19989,1567,516,0,1620,49500,72303,112299,49500,,IMU->,-70,-51,2052,2053,
19989,1564,462,1,1600,49500,72303,112299,49500,,IMU->,-113,-29,2053,2056,
19989,1559,391,2,1613,49500,72303,112299,49500,,IMU->,-86,-63,2047,2049,
19989,1570,373,1,1615,49500,72303,112299,49500,,IMU->,-53,-72,2051,2052,
19958,1559,377,1,1612,49500,72303,112299,49500,,IMU->,-41,-51,2054,2055,
19989,1563,377,0,1621,49500,72303,112299,49500,,IMU->,-67,-44,2046,2047,
19958,1566,368,0,1610,49500,72600,112794,49500,,IMU->,-48,-67,2042,2043,
19989,1562,852,1,1607,49500,72600,112794,49500,,IMU->,25,-83,2053,2054,
19989,1554,981,322,1612,49500,72600,112794,49500,,IMU->,69,-92,2049,2052,
19989,1567,1090,682,1620,49500,72600,112794,49500,,IMU->,44,-99,2049,2051,
19989,1561,1170,935,1623,49500,72600,112794,49500,,IMU->,50,-101,2047,2050,
19989,1569,1242,1149,1617,49500,72600,112794,49500,,IMU->,38,-94,2053,2055,
19989,1575,1265,1238,1629,49500,72600,112794,49500,,IMU->,20,-82,2046,2047,
19989,1570,1244,1173,1626,49500,72600,112794,49500,,IMU->,0,-74,2047,2048,
19958,1571,1196,1036,1618,49500,72600,112794,49500,,IMU->,-23,-63,2050,2051,
19989,1557,1144,868,1623,49500,72600,112794,49500,,IMU->,-37,-65,2045,2046,
19989,1562,1126,735,1626,49500,72600,112794,49500,,IMU->,16,-73,2049,2050,
19989,1591,1122,643,1626,49500,72600,112794,49500,,IMU->,41,-84,2053,2055,
19989,1568,1121,609,1627,49500,72600,112794,49500,,IMU->,62,-99,2053,2056,
20355,1579,1116,595,1620,49500,72600,112794,49500,,IMU->,74,-117,2047,2051,
19989,1564,1119,588,1611,49500,72600,112794,49500,,IMU->,99,-129,2052,2058,
19958,1557,1138,671,1597,49500,72600,112794,49500,,IMU->,130,-162,2053,2063,
19989,1567,1179,780,1613,49500,72600,112794,49500,,IMU->,13,-88,2051,2052,
19958,1572,1147,727,1620,49500,72600,112794,49500,,IMU->,8,-85,2049,2050,
19958,1562,1143,785,1618,49500,72600,112794,49500,,IMU->,4,-79,2049,2050,
19958,1569,1172,840,1623,49500,72600,112794,49500,,IMU->,0,-77,2048,2049,
19958,1572,1160,838,1607,49500,72600,112794,49500,,IMU->,-3,-81,2049,2050,
19989,1562,1150,820,1616,49500,72600,112794,49500,,IMU->,-3,-80,2053,2054,
19989,1563,1151,787,1618,49500,72600,112794,49500,,IMU->,0,-77,2050,2051,
19958,1562,1122,732,1609,49500,72600,112794,49500,,IMU->,-4,-78,2046,2047,
19989,1559,1107,643,1622,49500,72600,112794,49500,,IMU->,0,-79,2047,2048,
19958,1567,1090,597,1617,49500,72600,112794,49500,,IMU->,3,-80,2051,2052,
20324,1569,1082,538,1621,49500,72600,112794,49500,,IMU->,2,-78,2052,2053,
19958,1571,1076,501,1617,49500,72600,112794,49500,,IMU->,-5,-76,2048,2049,
19989,1560,1049,445,1610,49500,72600,112794,49500,,IMU->,-3,-80,2053,2054,
19989,1559,1033,397,1616,49500,72600,112794,49500,,IMU->,2,-80,2049,2050,
19958,1565,1046,400,1611,49500,72600,112794,49500,,IMU->,5,-78,2052,2053,
19958,1564,1031,342,1611,49500,72600,112794,49500,,IMU->,2,-76,2049,2050,
19958,1567,1011,305,1629,49500,72600,112794,49500,,IMU->,-3,-75,2052,2053,
19989,1572,1008,387,1623,49500,72600,112794,49500,,IMU->,308,-155,2070,2098,
19958,1560,1133,642,1609,49500,72600,112794,49500,,IMU->,179,-137,2051,2063,
19989,1551,1139,678,1607,49500,72600,112794,49500,,IMU->,97,-107,2048,2053,
19958,1561,1137,661,1620,49500,72600,112794,49500,,IMU->,67,-107,2055,2058,
19989,1563,1113,591,1613,49500,72600,112794,49500,,IMU->,24,-99,2048,2050,
20355,1570,1064,535,1614,49500,72600,112794,49500,,IMU->,12,-98,2051,2053,
19958,1558,1068,541,1614,49500,72600,112794,49500,,IMU->,-9,-91,2051,2053,
19989,1547,1053,485,1604,49500,72600,112794,49500,,IMU->,-3,-67,2055,2056,
19958,1564,1014,409,1614,49500,72600,112794,49500,,IMU->,-29,-59,2042,2043,
19958,1562,990,330,1619,49500,72600,112794,49500,,IMU->,-24,-65,2049,2050,
19989,1565,970,297,1614,49500,72600,112794,49500,,IMU->,-38,-76,2051,2052,
19958,1561,980,273,1617,49500,72600,112794,49500,,IMU->,-28,-68,2047,2048,
19989,1565,964,227,1602,49500,72600,112794,49500,,IMU->,-27,-65,2048,2049,
19989,1561,945,163,1617,49500,72600,112794,49500,,IMU->,-30,-71,2045,2046,
19989,1569,932,110,1610,49500,72600,112794,49500,,IMU->,-45,-70,2049,2050,
19989,1556,901,79,1600,49500,72600,112794,49500,,IMU->,-74,-56,2045,2047,
19989,1556,879,17,1619,49500,72600,112794,49500,,IMU->,-117,-40,2051,2054,
19958,1558,850,1,1612,49500,72600,112794,49500,,IMU->,-117,-63,2050,2054,
19989,1549,862,32,1608,49500,72600,112794,49500,,IMU->,-5,-78,2048,2049,
19989,1565,1016,420,1620,49500,72600,112794,49500,,IMU->,-2,-82,2050,2051,
19989,1578,1080,694,1608,49500,72600,112794,49500,,IMU->,-4,-77,2051,2052,
19989,1552,1136,903,1610,49500,72600,112794,49500,,IMU->,-6,-75,2050,2051,
20324,1558,1203,1103,1604,49500,72600,112794,49500,,IMU->,-9,-79,2048,2049,
19989,1560,1231,1203,1604,49500,72600,112794,49500,,IMU->,-9,-75,2049,2050,
19958,1558,1239,1196,1615,49500,72600,112794,49500,,IMU->,-12,-73,2047,2048,
19989,1563,1225,1124,1608,49500,72600,112794,49500,,IMU->,-8,-77,2050,2051,
19958,1554,1200,1027,1608,49500,72600,112794,49500,,IMU->,-5,-79,2052,2053,
19958,1553,1176,922,1601,49500,72600,112794,49500,,IMU->,-25,-63,2047,2048,
19989,1555,1118,750,1603,49500,72600,112794,49500,,IMU->,-46,-53,2046,2047,
19989,1552,1038,518,1608,49500,72600,112794,49500,,IMU->,-65,-68,2053,2055,
19989,1557,995,384,1605,49500,72600,112794,49500,,IMU->,-74,-42,2042,2043,
19958,1560,969,281,1609,49500,72600,112794,49500,,IMU->,-106,-34,2043,2046,
19989,1549,927,135,1604,49500,72600,112794,49500,,IMU->,-123,-13,2048,2051,
19989,1560,889,50,1612,49500,72600,112794,49500,,IMU->,-137,-2,2043,2047,
19989,1560,904,27,1617,49500,72600,112794,49500,,IMU->,-127,-38,2045,2049,
19989,1561,917,58,1617,49500,72600,112794,49500,,IMU->,-99,-49,2046,2048,
19989,1575,957,82,1620,49500,72600,112794,49500,,IMU->,-51,-49,2055,2056,
19989,1558,951,113,1615,49500,72600,112794,49500,,IMU->,-29,-56,2049,2049,
19989,1574,986,122,1628,49500,72600,112794,49500,,IMU->,45,-103,2050,2053,
20355,1576,1024,182,1624,49500,72600,112794,49500,,IMU->,86,-113,2050,2054,
19989,1563,1067,337,1612,49500,72600,112794,49500,,IMU->,156,-126,2051,2060,
19989,1569,1126,602,1627,49500,72600,112794,49500,,IMU->,252,-173,2060,2082,
19989,1571,1235,1077,1611,49500,72600,112794,49500,,IMU->,273,-214,2049,2078,
19989,1568,1327,1553,1613,49500,72600,112794,49500,,IMU->,104,-146,2042,2049,
19989,1567,1280,1337,1624,49500,72600,112794,49500,,IMU->,24,-94,2056,2058,
19989,1569,1052,710,1617,49500,72600,112794,49500,,IMU->,6,-84,2050,2051,
19958,1557,995,550,1616,49500,72600,112794,49500,,IMU->,-1,-82,2050,2051,
19989,1559,988,485,1614,49500,72600,112794,49500,,IMU->,-4,-79,2048,2049,
19989,1569,946,348,1617,49500,72600,112794,49500,,IMU->,69,-103,2052,2055,
19989,1568,956,321,1624,49500,72600,112794,49500,,IMU->,13,-84,2050,2051,
19989,1570,931,284,1612,49500,72600,112794,49500,,IMU->,140,-130,2049,2057,
19989,1561,984,389,1616,49500,72600,112794,49500,,IMU->,86,-113,2046,2050,
19989,1563,1024,470,1604,49500,72600,112794,49500,,IMU->,77,-82,2049,2052,
19989,1562,1027,508,1602,49500,72600,112794,49500,,IMU->,69,-87,2044,2047,
19989,1555,1026,522,1613,49500,72600,112794,49500,,IMU->,43,-101,2050,2052,
19989,1566,1037,547,1615,49500,72600,112794,49500,,IMU->,31,-107,2048,2051,
19989,1566,1025,521,1612,49500,72600,112794,49500,,IMU->,18,-92,2049,2051,
19958,1554,1000,471,1605,49500,72600,112794,49500,,IMU->,0,-68,2047,2048,
19958,1556,972,381,1606,49500,72600,112794,49500,,IMU->,10,-84,2050,2051,
19989,1560,950,327,1609,49500,72600,112794,49500,,IMU->,12,-80,2050,2051,
20355,1553,926,291,1606,49500,72600,112794,49500,,IMU->,-41,-76,2049,2050,
19989,1562,882,157,1613,49500,72600,112794,49500,,IMU->,-33,-73,2055,2056,
19958,1560,860,92,1609,49500,72600,112794,49500,,IMU->,-39,-68,2046,2047,
19958,1563,856,88,1607,49500,72600,112794,49500,,IMU->,-42,-59,2046,2047,
19989,1563,874,99,1612,49500,72600,112794,49500,,IMU->,-32,-59,2048,2049,
19958,1559,871,107,1611,49500,72600,112794,49500,,IMU->,-32,-73,2048,2049,
19989,1553,863,81,1611,49500,72600,112794,49500,,IMU->,-6,-76,2050,2051,
19989,1554,881,111,1596,49500,72600,112794,49500,,IMU->,10,-77,2054,2055,
19989,1555,895,148,1602,49500,72600,112794,49500,,IMU->,17,-73,2050,2051,
19989,1564,925,213,1611,49500,72600,112794,49500,,IMU->,14,-90,2047,2049,
19989,1559,963,402,1600,49500,72600,112794,49500,,IMU->,22,-92,2051,2053,
19958,1554,1068,758,1604,49500,72600,112794,49500,,IMU->,31,-93,2049,2051,
19989,1547,1179,1136,1598,49500,72600,112794,49500,,IMU->,44,-84,2047,2049,
19989,1546,1272,1481,1598,49500,72600,112794,49500,,IMU->,28,-89,2044,2046,
19989,1551,1374,1800,1610,49500,72600,112794,49500,,IMU->,15,-102,2056,2058,
19989,1557,1408,1950,1610,49500,72600,112794,49500,,IMU->,2,-98,2046,2048,
19958,1554,1411,1958,1615,49500,72600,112794,49500,,IMU->,-22,-76,2056,2057,
20355,1554,1396,1918,1603,49500,72600,112794,49500,,IMU->,-28,-69,2047,2048,
19958,1556,1354,1791,1599,49500,72600,112794,49500,,IMU->,-62,-78,2051,2053,
19958,1549,1295,1625,1606,49500,72600,112794,49500,,IMU->,-78,-55,2050,2052,
19989,1553,1241,1505,1606,49500,72600,112794,49500,,IMU->,-99,-39,2048,2050,
19958,1560,1194,1333,1610,49500,72600,112794,49500,,IMU->,-108,-45,2048,2051,
19989,1556,1157,1175,1604,49500,72600,112794,49500,,IMU->,-92,-54,2053,2055,
19989,1561,1121,1088,1603,49500,72600,112794,49500,,IMU->,-8,-81,2049,2050,
19989,1559,1139,1077,1604,49500,72600,112794,49500,,IMU->,-12,-74,2051,2052,
19958,1552,1126,1057,1596,49500,72600,112794,49500,,IMU->,-14,-82,2051,2052,
19989,1551,1135,1081,1601,49500,72600,112794,49500,,IMU->,-7,-81,2047,2048,
19989,1539,1151,1159,1593,49500,72600,112794,49500,,IMU->,-7,-78,2048,2049,
19989,1554,1172,1233,1601,49500,72600,112794,49500,,IMU->,-4,-77,2052,2053,
19989,1557,1177,1258,1608,49500,72600,112794,49500,,IMU->,-16,-77,2048,2049,
19989,1556,1182,1309,1604,49500,72600,112794,49500,,IMU->,-20,-69,2047,2048,
19989,1546,1186,1304,1601,49500,72600,112794,49500,,IMU->,-30,-71,2044,2045,
19989,1544,1137,1184,1593,49500,72600,112794,49500,,IMU->,-158,-15,2044,2050,
19958,1544,1031,914,1603,49500,72600,112794,49500,,IMU->,-103,-50,2049,2052,
20355,1558,1002,767,1606,49500,72600,112794,49500,,IMU->,-140,-48,2049,2054,
19989,1551,958,624,1605,49500,72600,112794,49500,,IMU->,-169,-19,2053,2060,
19958,1554,894,404,1613,49500,72600,112794,49500,,IMU->,-147,1,2051,2056,
19989,1553,858,228,1601,49500,72600,112794,49500,,IMU->,-136,-21,2045,2049,
19958,1556,805,85,1602,49500,72600,112794,49500,,IMU->,-153,-41,2050,2056,
19958,1554,807,22,1608,49500,72600,112794,49500,,IMU->,-81,-49,2051,2053,
19989,1556,812,26,1601,49500,72600,112794,49500,,IMU->,-64,-31,2045,2046,
19958,1557,828,37,1612,49500,72600,112794,49500,,IMU->,-19,-65,2044,2045,
19989,1558,824,14,1613,49500,72600,112794,49500,,IMU->,12,-97,2058,2060,
19989,1562,821,20,1604,49500,72600,112794,49500,,IMU->,62,-146,2045,2051,
19989,1556,830,14,1610,49500,72600,112794,49500,,IMU->,131,-127,2065,2073,
19989,1553,809,1,1596,49500,72600,112794,49500,,IMU->,184,-115,2049,2060,
19989,1547,810,1,1605,49500,72600,112794,49500,,IMU->,164,-105,2049,2058,
19958,1552,832,2,1600,49500,72600,112794,49500,,IMU->,182,-143,2044,2057,
19989,1547,817,10,1600,49500,72600,112794,49500,,IMU->,244,-189,2053,2076,
19989,1561,871,120,1612,49500,72600,112794,49500,,IMU->,299,-213,2052,2084,
19989,1565,911,240,1603,49500,72600,112794,49500,,IMU->,25,-89,2048,2050,
20355,1551,745,2,1599,49500,72600,112794,49500,,IMU->,9,-87,2044,2045,
19958,1543,652,2,1595,49500,72600,112794,49500,,IMU->,2,-82,2048,2049,
19958,1557,672,0,1604,49500,72600,112794,49500,,IMU->,1,-85,2051,2052,
19958,1555,670,0,1609,49500,72600,112794,49500,,IMU->,5,-80,2050,2051,
19958,1560,652,0,1605,49500,72600,112794,49500,,IMU->,12,-87,2048,2049,
19989,1560,661,0,1609,49500,72600,112794,49500,,IMU->,54,-97,2048,2051,
19958,1554,693,1,1596,49500,72699,113388,49500,,IMU->,84,-107,2052,2056,
19989,1547,710,297,1593,49500,72699,113388,49500,,IMU->,52,-112,2047,2050,
19989,1550,718,310,1596,49500,72699,113388,49500,,IMU->,46,-85,2051,2053,
19958,1550,722,351,1598,49500,72699,113388,49500,,IMU->,37,-85,2048,2050,
19989,1552,742,385,1606,49500,72699,113388,49500,,IMU->,5,-79,2047,2048,
19958,1539,729,339,1603,49500,72699,113388,49500,,IMU->,19,-101,2046,2048,
20355,1551,711,355,1605,49500,72699,113388,49500,,IMU->,32,-100,2052,2054,
19989,1558,744,470,1603,49500,72699,113388,49500,,IMU->,28,-80,2050,2051,
19958,1549,800,706,1592,49500,72699,113388,49500,,IMU->,0,-75,2046,2047,
19958,1552,867,1005,1606,49500,72699,113388,49500,,IMU->,-12,-80,2048,2049,
19989,1552,962,1281,1599,49500,72699,113388,49500,,IMU->,-33,-68,2054,2055,
19989,1554,1001,1487,1601,49500,72699,113388,49500,,IMU->,-45,-66,2047,2048,
19989,1560,1056,1635,1613,49500,72699,113388,49500,,IMU->,-36,-64,2049,2050,
19989,1559,1080,1724,1605,49500,72699,113388,49500,,IMU->,-19,-69,2048,2049,
19989,1553,1078,1719,1606,49500,72699,113388,49500,,IMU->,-16,-66,2045,2046,
19989,1552,1091,1725,1602,49500,72699,113388,49500,,IMU->,-35,-67,2047,2048,
19989,1555,1084,1689,1590,49500,72699,113388,49500,,IMU->,-8,-81,2049,2050,
19989,1550,1079,1638,1602,49500,72699,113388,49500,,IMU->,24,-88,2051,2053,
19958,1554,1063,1612,1590,49500,72699,113388,49500,,IMU->,33,-83,2046,2047,
19989,1549,1043,1535,1601,49500,72699,113388,49500,,IMU->,19,-79,2048,2049,
19989,1539,1017,1478,1594,49500,72699,113388,49500,,IMU->,0,-86,2050,2051,
19958,1551,1009,1474,1595,49500,72699,113388,49500,,IMU->,25,-96,2051,2053,
19989,1544,1024,1494,1602,49500,72699,113388,49500,,IMU->,6,-85,2045,2046,
20324,1556,1020,1501,1604,49500,72699,113388,49500,,IMU->,-5,-70,2052,2053,
19958,1557,1012,1542,1602,49500,72699,113388,49500,,IMU->,-1,-81,2046,2047,
19989,1545,1040,1596,1596,49500,72699,113388,49500,,IMU->,13,-87,2048,2049,
19958,1550,1054,1659,1601,49500,72699,113388,49500,,IMU->,-6,-83,2047,2048,
19989,1555,1059,1678,1602,49500,72699,113388,49500,,IMU->,-42,-59,2047,2048,
19989,1545,1038,1695,1598,49500,72699,113388,49500,,IMU->,-40,-61,2053,2054,
19989,1558,1051,1719,1608,49500,72699,113388,49500,,IMU->,-16,-81,2047,2048,
19989,1547,1079,1755,1598,49500,72699,113388,49500,,IMU->,-2,-81,2048,2049,
19989,1549,1076,1789,1596,49500,72699,113388,49500,,IMU->,7,-78,2047,2048,
19958,1554,1093,1768,1603,49500,72699,113388,49500,,IMU->,-6,-78,2046,2047,
19989,1549,1047,1692,1596,49500,72699,113388,49500,,IMU->,3,-88,2050,2051,
19958,1547,1023,1657,1605,49500,72699,113388,49500,,IMU->,27,-93,2050,2052,
19989,1549,1040,1660,1591,49500,72699,113388,49500,,IMU->,36,-88,2049,2051,
19989,1540,1046,1700,1585,49500,72699,113388,49500,,IMU->,38,-85,2048,2050,
19989,1546,1060,1741,1606,49500,72699,113388,49500,,IMU->,53,-100,2049,2052,
19989,1554,1062,1772,1595,49500,72699,113388,49500,,IMU->,43,-105,2048,2051,
19989,1538,1041,1763,1597,49500,72699,113388,49500,,IMU->,45,-110,2055,2058,
19989,1544,1046,1769,1598,49500,72699,113388,49500,,IMU->,30,-86,2045,2047,
19989,1552,1039,1775,1592,49500,72699,113388,49500,,IMU->,0,-70,2047,2048,
20324,1552,1018,1703,1600,49500,72699,113388,49500,,IMU->,-69,-66,2048,2050,
19958,1550,948,1553,1597,49500,72699,113388,49500,,IMU->,-130,-50,2044,2048,
19958,1550,844,1296,1601,49500,72699,113388,49500,,IMU->,-164,-12,2048,2054,
19989,1547,768,1001,1602,49500,72699,113388,49500,,IMU->,-155,-26,2046,2052,
19989,1548,735,909,1593,49500,72699,113388,49500,,IMU->,-17,-72,2052,2053,
19989,1539,790,977,1603,49500,72699,113388,49500,,IMU->,-19,-69,2050,2051,
19958,1553,805,992,1602,49500,72699,113388,49500,,IMU->,-19,-72,2050,2051,
19989,1560,796,969,1600,49500,72699,113388,49500,,IMU->,-30,-67,2048,2049,
19989,1540,794,950,1595,49500,72699,113388,49500,,IMU->,-43,-72,2051,2052,
19989,1549,786,948,1596,49500,72699,113388,49500,,IMU->,-32,-81,2048,2049,
19989,1550,796,919,1594,49500,72699,113388,49500,,IMU->,-72,-70,2056,2058,
19989,1537,764,874,1596,49500,72699,113388,49500,,IMU->,-72,-76,2051,2053,
19958,1555,740,815,1614,49500,72699,113388,49500,,IMU->,-109,-62,2051,2054,
19989,1547,686,658,1598,49500,72699,113388,49500,,IMU->,-116,-48,2047,2050,
19989,1540,640,544,1598,49500,72699,113388,49500,,IMU->,-122,-24,2052,2055,
19989,1565,651,534,1611,49500,72699,113388,49500,,IMU->,-17,-66,2047,2048,
19989,1558,679,611,1596,49500,72699,113388,49500,,IMU->,33,-65,2044,2045,
19989,1544,735,799,1595,49500,72699,113388,49500,,IMU->,138,-102,2049,2056,
20324,1542,864,1293,1593,49500,72699,113388,49500,,IMU->,270,-176,2050,2075,
19989,1547,1139,2615,1594,49500,72699,113388,49500,,IMU->,208,-182,2054,2072,
19989,1554,1458,2980,1599,49500,72699,113388,49500,,IMU->,26,-92,2043,2045,
19958,1558,1255,2978,1597,49500,72699,113388,49500,,IMU->,20,-90,2050,2052,
19958,1560,1193,2975,1600,49500,72699,113388,49500,,IMU->,19,-88,2047,2048,
19989,1547,1244,2978,1601,49500,72699,113388,49500,,IMU->,31,-92,2050,2052,
19958,1546,1246,2947,1583,49500,72699,113388,49500,,IMU->,24,-87,2050,2051,
19989,1552,1224,2817,1602,49500,72699,113388,49500,,IMU->,20,-91,2048,2050,
19958,1555,1203,2750,1610,49500,72699,113388,49500,,IMU->,101,-105,2047,2052,
19989,1549,1250,2840,1599,49500,72699,113388,49500,,IMU->,151,-103,2050,2058,
19989,1545,1334,2977,1598,49500,72699,113388,49500,,IMU->,138,-98,2047,2053,
19989,1554,1351,2977,1593,49500,72699,113388,49500,,IMU->,45,-91,2049,2051,
19989,1536,1258,2866,1592,49500,72699,113388,49500,,IMU->,-51,-85,2052,2054,
19989,1549,1146,2552,1589,49500,72699,113388,49500,,IMU->,-85,-91,2041,2044,
19989,1560,1068,2335,1600,49500,72699,113388,49500,,IMU->,-25,-79,2051,2052,
19989,1544,1077,2319,1593,49500,72699,113388,49500,,IMU->,-13,-65,2049,2050,
20324,1545,1070,2290,1589,49500,72699,113388,49500,,IMU->,-48,-46,2048,2049,
19958,1549,1044,2231,1596,49500,72699,113388,49500,,IMU->,-82,-48,2051,2053,
19958,1539,1037,2273,1584,49500,72699,113388,49500,,IMU->,-73,-71,2047,2049,
19989,1556,1074,2388,1598,49500,72699,113388,49500,,IMU->,-17,-72,2055,2056,
19958,1544,1139,2540,1595,49500,72699,113388,49500,,IMU->,-3,-64,2048,2049,
19989,1542,1169,2608,1597,49500,72699,113388,49500,,IMU->,-38,-53,2048,2049,
19989,1555,1170,2569,1602,49500,72699,113388,49500,,IMU->,-102,-60,2045,2048,
19989,1548,1100,2446,1598,49500,72699,113388,49500,,IMU->,-87,-58,2053,2055,
19958,1550,1043,2341,1606,49500,72699,113388,49500,,IMU->,-29,-76,2047,2048,
19989,1539,1053,2332,1587,49500,72699,113388,49500,,IMU->,0,-79,2049,2050,
19958,1526,1084,2373,1585,49500,72699,113388,49500,,IMU->,4,-78,2049,2050,
19958,1546,1083,2317,1602,49500,72699,113388,49500,,IMU->,10,-84,2044,2045,
19989,1555,1036,2213,1600,49500,72699,113388,49500,,IMU->,9,-83,2049,2050,
20294,1559,1018,2173,1601,49500,72699,113388,49500,,IMU->,7,-87,2052,2053,
19958,1546,1031,2181,1596,49500,72699,113388,49500,,IMU->,6,-84,2047,2048,
19958,1542,1057,2259,1587,49500,72699,113388,49500,,IMU->,-3,-80,2049,2050,
19989,1540,1052,2221,1590,49500,72699,113388,49500,,IMU->,-9,-77,2054,2055,
19958,1540,1037,2213,1594,49500,72699,113388,49500,,IMU->,-14,-76,2045,2046,
19958,1544,1029,2216,1596,49500,72699,113388,49500,,IMU->,-7,-77,2051,2052,
19989,1544,1044,2219,1601,49500,72699,113388,49500,,IMU->,-13,-76,2050,2051,
19958,1550,1024,2168,1588,49500,72699,113388,49500,,IMU->,-14,-67,2046,2047,
19989,1536,1010,2144,1594,49500,72699,113388,49500,,IMU->,-14,-76,2048,2049,
19989,1545,1011,2154,1589,49500,72699,113388,49500,,IMU->,-12,-77,2050,2051,
19989,1549,1009,2170,1591,49500,72699,113388,49500,,IMU->,2,-84,2051,2052,
20324,1547,1046,2216,1593,49500,72699,113388,49500,,IMU->,-7,-86,2049,2050,
19927,1540,1023,2153,1588,49500,72699,113388,49500,,IMU->,2,-93,2050,2052,
19958,1547,982,2072,1605,49500,72699,113388,49500,,IMU->,-59,-68,2053,2054,
19989,1551,953,1992,1601,49500,72699,113388,49500,,IMU->,-64,-54,2049,2050,
19989,1548,906,1907,1599,49500,72699,113388,49500,,IMU->,-49,-65,2049,2050,
19989,1536,892,1840,1592,49500,72699,113388,49500,,IMU->,-41,-67,2049,2050,
19989,1545,862,1787,1591,49500,72699,113388,49500,,IMU->,-17,-61,2050,2050,
19989,1553,852,1734,1600,49500,72699,113388,49500,,IMU->,-20,-70,2048,2049,
19958,1546,849,1720,1601,49500,72699,113388,49500,,IMU->,-57,-54,2048,2049,
19989,1553,850,1778,1600,49500,72699,113388,49500,,IMU->,-30,-69,2049,2050,
19989,1544,893,1942,1597,49500,72699,113388,49500,,IMU->,-9,-75,2050,2051,
19989,1536,969,2247,1587,49500,72699,113388,49500,,IMU->,3,-86,2048,2049,
19958,1545,1061,2548,1600,49500,72699,113388,49500,,IMU->,10,-96,2048,2050,
19989,1551,1104,2751,1598,49500,72699,113388,49500,,IMU->,-5,-73,2047,2048,
19989,1556,1126,2861,1602,49500,72699,113388,49500,,IMU->,20,-78,2049,2050,
20355,1553,1150,2902,1603,49500,72699,113388,49500,,IMU->,-1,-84,2046,2047,
19989,1552,1145,2896,1601,49500,72699,113388,49500,,IMU->,30,-95,2049,2051,
19989,1547,1149,2863,1596,49500,72699,113388,49500,,IMU->,69,-107,2049,2052,
19989,1551,1166,2888,1594,49500,72699,113388,49500,,IMU->,104,-111,2048,2053,
19927,1548,1193,2948,1603,49500,72699,113388,49500,,IMU->,148,-132,2050,2059,
19958,1551,1238,2977,1601,49500,72699,113388,49500,,IMU->,54,-104,2048,2051,
19989,1544,1204,2866,1593,49500,72699,113388,49500,,IMU->,16,-85,2051,2052,
19958,1552,1113,2699,1610,49500,72699,113388,49500,,IMU->,13,-87,2050,2051,
19989,1557,1105,2664,1602,49500,72699,113388,49500,,IMU->,5,-85,2048,2049,
19958,1543,1069,2615,1593,49500,72699,113388,49500,,IMU->,7,-84,2049,2050,
19958,1539,1082,2635,1597,49500,72699,113388,49500,,IMU->,10,-86,2053,2054,
19989,1539,1106,2755,1594,49500,72699,113388,49500,,IMU->,13,-92,2051,2053,
20324,1550,1163,2898,1599,49500,72699,113388,49500,,IMU->,24,-91,2047,2049,
19653,1552,1191,2965,1602,49500,72699,113388,49500,,IMU->,45,-93,2046,2048,
20324,1555,1205,2974,1592,49500,72699,113388,49500,,IMU->,143,-122,2050,2058,
19989,1543,1315,2978,1596,49500,72699,113388,49500,,IMU->,142,-116,2053,2061,
19989,1549,1395,2975,1588,49500,72699,113388,49500,,IMU->,94,-110,2049,2054,
19927,1546,1424,2976,1594,49500,72699,113388,49500,,IMU->,63,-112,2048,2052,
19989,1543,1415,2981,1596,49500,72699,113388,49500,,IMU->,9,-103,2049,2051,
19989,1548,1343,2980,1595,49500,72699,113388,49500,,IMU->,-15,-110,2051,2054,
19989,1542,1249,2980,1597,49500,72699,113388,49500,,IMU->,2,-92,2048,2050,
19958,1544,1214,2978,1589,49500,72699,113388,49500,,IMU->,0,-60,2051,2051,
19958,1547,1198,2977,1589,49500,72699,113388,49500,,IMU->,-44,-48,2051,2052,
19989,1534,1090,2978,1593,49500,72699,113388,49500,,IMU->,-80,-62,2045,2047,
19958,1547,991,2623,1602,49500,72699,113388,49500,,IMU->,-118,-34,2046,2049,
19958,1535,936,2374,1592,49500,72699,113388,49500,,IMU->,-144,-24,2052,2057,
19989,1540,879,2198,1593,49500,72699,113388,49500,,IMU->,-149,-25,2049,2054,
20355,1554,817,1975,1598,49500,72699,113388,49500,,IMU->,-110,-38,2047,2050,
19989,1545,795,1894,1592,49500,72699,113388,49500,,IMU->,-14,-69,2051,2052,
19989,1552,826,1956,1588,49500,72699,113388,49500,,IMU->,-2,-80,2047,2048,
19989,1542,846,1958,1594,49500,72699,113388,49500,,IMU->,6,-84,2044,2045,
19958,1538,843,1952,1584,49500,72699,113388,49500,,IMU->,8,-82,2051,2052,
19958,1547,856,1957,1595,49500,72699,113388,49500,,IMU->,5,-84,2046,2047,
19958,1543,864,1964,1587,49500,72699,113388,49500,,IMU->,4,-87,2047,2048,
19958,1540,853,1978,1583,49500,72699,113388,49500,,IMU->,1,-84,2045,2046,
19958,1532,875,1980,1594,49500,72831,112563,49500,,IMU->,0,-84,2052,2053,
19958,1540,1012,1212,1581,49500,72831,112563,49500,,IMU->,-5,-77,2051,2052,
19989,1540,986,1168,1595,49500,72831,112563,49500,,IMU->,-12,-75,2046,2047,
19989,1537,966,1107,1598,49500,72831,112563,49500,,IMU->,-26,-70,2052,2053,
19989,1549,947,1093,1597,49500,72831,112563,49500,,IMU->,-29,-69,2043,2044,
19989,1539,956,1079,1596,49500,72831,112563,49500,,IMU->,-46,-60,2053,2054,
20355,1541,937,1015,1578,49500,72831,112563,49500,,IMU->,-21,-73,2045,2046,
19989,1543,914,949,1593,49500,72831,112563,49500,,IMU->,-111,-50,2052,2055,
19989,1554,869,839,1598,49500,72831,112563,49500,,IMU->,-103,-47,2049,2052,
19958,1558,833,787,1592,49500,72831,112563,49500,,IMU->,-115,-33,2048,2051,
19989,1531,800,682,1587,49500,72831,112563,49500,,IMU->,-86,-42,2045,2047,
19927,1545,798,740,1591,49500,72831,112563,49500,,IMU->,-73,-66,2044,2046,
19958,1548,863,963,1581,49500,72831,112563,49500,,IMU->,-83,-52,2051,2053,
19989,1537,966,1330,1594,49500,72831,112563,49500,,IMU->,-87,-60,2043,2045,
19989,1555,1071,1758,1605,49500,72831,112563,49500,,IMU->,-48,-62,2056,2057,
19989,1557,1168,2089,1600,49500,72831,112563,49500,,IMU->,-38,-64,2043,2044,
19989,1545,1226,2309,1594,49500,72831,112563,49500,,IMU->,-11,-79,2039,2040,
19989,1552,1269,2415,1598,49500,72831,112563,49500,,IMU->,30,-89,2051,2053,
19989,1552,1286,2438,1600,49500,72831,112563,49500,,IMU->,51,-103,2047,2050,
19989,1551,1256,2367,1602,49500,72831,112563,49500,,IMU->,111,-113,2051,2057,
19958,1549,1263,2292,1604,49500,72831,112563,49500,,IMU->,171,-129,2050,2061,
19989,1556,1270,2292,1592,49500,72831,112563,49500,,IMU->,243,-165,2051,2071,
19989,1557,1340,2473,1604,49500,72831,112563,49500,,IMU->,266,-204,2054,2081,
20355,1547,1399,2589,1592,49500,72831,112563,49500,,IMU->,28,-96,2046,2048,
19989,1546,1196,2090,1594,49500,72831,112563,49500,,IMU->,5,-90,2046,2047,
19958,1546,1133,1945,1597,49500,72831,112563,49500,,IMU->,-6,-82,2051,2052,
19989,1545,1136,1948,1577,49500,72831,112563,49500,,IMU->,-9,-77,2051,2052,
19989,1549,1121,1930,1599,49500,72831,112563,49500,,IMU->,-7,-77,2046,2047,
19989,1563,1130,1914,1606,49500,72831,112563,49500,,IMU->,61,-97,2055,2058,
19927,1557,1141,1992,1598,49500,72831,112563,49500,,IMU->,179,-135,2052,2064,
19958,1548,1260,2318,1598,49500,72831,112563,49500,,IMU->,197,-137,2049,2063,
19989,1535,1414,2855,1588,49500,72831,112563,49500,,IMU->,249,-128,2054,2072,
19989,1535,1585,2983,1584,49500,72831,112563,49500,,IMU->,200,-78,2047,2058,
19989,1535,1702,2978,1588,49500,72831,112563,49500,,IMU->,82,-109,2048,2052,
19958,1550,1674,2976,1594,49500,72831,112563,49500,,IMU->,-18,-142,2049,2053,
19989,1540,1538,2979,1600,49500,72831,112563,49500,,IMU->,-75,-158,2040,2047,
19989,1543,1384,2972,1594,49500,72831,112563,49500,,IMU->,-59,-71,2056,2058,
19989,1540,1218,2393,1601,49500,72831,112563,49500,,IMU->,-139,-11,2046,2050,
19989,1546,1076,1886,1601,49500,72831,112563,49500,,IMU->,-169,-8,2051,2057,
19989,1545,970,1552,1597,49500,72831,112563,49500,,IMU->,-200,-15,2045,2054,
20355,1544,914,1255,1595,49500,72831,112563,49500,,IMU->,-195,-2,2045,2054,
19989,1553,838,979,1595,49500,72831,112563,49500,,IMU->,-50,-56,2047,2048,
19989,1558,833,893,1600,49500,72831,112563,49500,,IMU->,-16,-74,2045,2046,
19927,1552,882,959,1593,49500,72831,112563,49500,,IMU->,-4,-81,2050,2051,
19989,1554,873,968,1591,49500,72831,112563,49500,,IMU->,3,-87,2046,2047,
19927,1540,890,974,1586,49500,72831,112563,49500,,IMU->,7,-85,2047,2048,
19958,1535,908,1026,1576,49500,72831,112563,49500,,IMU->,8,-89,2053,2054,
19958,1547,944,1134,1598,49500,72831,112563,49500,,IMU->,7,-88,2046,2047,
19958,1550,976,1259,1593,49500,72831,112563,49500,,IMU->,5,-90,2048,2049,
19958,1535,986,1322,1591,49500,72831,112563,49500,,IMU->,5,-85,2049,2050,
20324,1549,989,1314,1595,49500,72831,112563,49500,,IMU->,2,-85,2050,2051,
19989,1542,965,1297,1581,49500,72831,112563,49500,,IMU->,-6,-80,2052,2053,
19989,1532,944,1266,1592,49500,72831,112563,49500,,IMU->,-7,-77,2050,2051,
19989,1548,961,1262,1596,49500,72831,112563,49500,,IMU->,-10,-76,2046,2047,
19989,1549,938,1224,1587,49500,72831,112563,49500,,IMU->,-10,-78,2049,2050,
19989,1543,916,1169,1599,49500,72831,112563,49500,,IMU->,-5,-87,2048,2049,
19989,1545,915,1152,1589,49500,72831,112563,49500,,IMU->,1,-86,2051,2052,
19927,1542,917,1151,1583,49500,72831,112563,49500,,IMU->,5,-87,2048,2049,
19958,1534,920,1131,1589,49500,72831,112563,49500,,IMU->,9,-87,2050,2051,
19958,1545,895,1083,1587,49500,72831,112563,49500,,IMU->,-1,-93,2053,2055,
19958,1532,878,1025,1593,49500,72831,112563,49500,,IMU->,-1,-86,2046,2047,
19958,1532,885,1022,1599,49500,72831,112563,49500,,IMU->,2,-83,2050,2051,
20324,1557,881,982,1591,49500,72831,112563,49500,,IMU->,1,-82,2049,2050,
19958,1546,874,968,1594,49500,72831,112563,49500,,IMU->,-1,-77,2048,2049,
19958,1546,860,966,1588,49500,72831,112563,49500,,IMU->,-7,-84,2045,2046,
19989,1536,876,1017,1584,49500,72831,112563,49500,,IMU->,-6,-80,2049,2050,
19927,1534,919,1203,1581,49500,72831,112563,49500,,IMU->,-3,-80,2047,2048,
19958,1542,994,1502,1588,49500,72831,112563,49500,,IMU->,0,-85,2052,2053,
19958,1540,1087,1873,1598,49500,72831,112563,49500,,IMU->,0,-84,2050,2051,
19958,1548,1175,2262,1606,49500,72831,112563,49500,,IMU->,7,-85,2050,2051,
20324,1553,1262,2519,1598,49500,72831,112563,49500,,IMU->,6,-84,2052,2053,
19958,1534,1287,2616,1586,49500,72831,112563,49500,,IMU->,3,-86,2048,2049,
19989,1546,1282,2606,1589,49500,72831,112563,49500,,IMU->,0,-86,2048,2049,
19958,1544,1280,2536,1594,49500,72831,112563,49500,,IMU->,-2,-82,2052,2053,
19989,1547,1244,2458,1592,49500,72831,112563,49500,,IMU->,-6,-80,2045,2046,
19989,1554,1227,2367,1606,49500,72831,112563,49500,,IMU->,-8,-79,2051,2052,
19927,1547,1208,2261,1588,49500,72831,112563,49500,,IMU->,-8,-81,2049,2050,
19958,1528,1172,2172,1590,49500,72831,112563,49500,,IMU->,-10,-84,2049,2050,
19989,1539,1152,2059,1592,49500,72831,112563,49500,,IMU->,0,-81,2052,2053,
19958,1542,1108,1968,1594,49500,72831,112563,49500,,IMU->,2,-84,2050,2051,
19958,1538,1099,1911,1600,49500,72831,112563,49500,,IMU->,3,-84,2051,2052,
20324,1542,1091,1917,1587,49500,72831,112563,49500,,IMU->,7,-83,2051,2052,
19958,1549,1113,1966,1592,49500,72831,112563,49500,,IMU->,2,-85,2049,2050,
19958,1549,1126,2014,1598,49500,72831,112563,49500,,IMU->,3,-89,2047,2048,
19958,1551,1127,2089,1590,49500,72831,112563,49500,,IMU->,2,-86,2049,2050,
19958,1545,1139,2146,1594,49500,72831,112563,49500,,IMU->,-4,-81,2050,2051,
19989,1544,1159,2183,1595,49500,72831,112563,49500,,IMU->,-6,-81,2050,2051,
19989,1544,1150,2155,1591,49500,72831,112563,49500,,IMU->,-7,-82,2047,2048,
19989,1542,1140,2129,1604,49500,72831,112563,49500,,IMU->,-6,-82,2048,2049,
19989,1549,1125,2068,1596,49500,72831,112563,49500,,IMU->,-6,-82,2047,2048,
19989,1544,1099,1988,1590,49500,72831,112563,49500,,IMU->,-3,-83,2052,2053,
19989,1532,1092,1952,1583,49500,72831,112563,49500,,IMU->,-4,-82,2048,2049,
19989,1545,1092,1890,1595,49500,72831,112563,49500,,IMU->,2,-82,2048,2049,
19958,1542,1067,1824,1598,49500,72831,112563,49500,,IMU->,0,-85,2047,2048,
20324,1548,1039,1765,1593,49500,72831,112563,49500,,IMU->,1,-87,2051,2052,
19958,1548,1034,1728,1596,49500,72831,112563,49500,,IMU->,3,-89,2050,2051,
19958,1544,1022,1686,1593,49500,72831,112563,49500,,IMU->,0,-84,2051,2052,
19958,1550,1010,1661,1591,49500,72831,112563,49500,,IMU->,0,-85,2048,2049,
19927,1541,1009,1617,1589,49500,72831,112563,49500,,IMU->,-4,-83,2050,2051,
19958,1544,986,1612,1594,49500,72831,112563,49500,,IMU->,-5,-82,2047,2048,
19958,1541,995,1600,1599,49500,72831,112563,49500,,IMU->,-4,-80,2052,2053,
19989,1540,996,1596,1589,49500,72831,112563,49500,,IMU->,0,-79,2049,2050,
19958,1544,994,1591,1595,49500,72831,112563,49500,,IMU->,-1,-80,2047,2048,
20355,1547,991,1564,1592,49500,72831,112563,49500,,IMU->,1,-84,2050,2051,
19958,1540,965,1546,1587,49500,72831,112563,49500,,IMU->,-1,-88,2049,2050,
19989,1546,975,1542,1594,49500,72831,112563,49500,,IMU->,0,-84,2049,2050,
19958,1545,976,1540,1581,49500,72831,112563,49500,,IMU->,-1,-84,2046,2047,
19989,1544,975,1541,1591,49500,72831,112563,49500,,IMU->,1,-83,2050,2051,
19958,1542,974,1513,1598,49500,72831,112563,49500,,IMU->,0,-83,2045,2046,
19927,1546,960,1492,1583,49500,72831,112563,49500,,IMU->,-5,-79,2050,2051,
19989,1544,961,1458,1602,49500,72831,112563,49500,,IMU->,-1,-84,2051,2052,
19958,1541,950,1440,1577,49500,72831,112563,49500,,IMU->,0,-84,2047,2048,
19958,1544,934,1407,1581,49500,72831,112563,49500,,IMU->,0,-80,2051,2052,
20324,1537,939,1385,1589,49500,72831,112563,49500,,IMU->,0,-78,2048,2049,
19958,1553,927,1384,1591,49500,72831,112563,49500,,IMU->,1,-88,2051,2052,
19958,1542,921,1340,1588,49500,72831,112563,49500,,IMU->,4,-85,2049,2050,
19989,1534,919,1289,1586,49500,72831,112563,49500,,IMU->,1,-85,2052,2053,
19958,1544,904,1305,1587,49500,72831,112563,49500,,IMU->,-2,-86,2048,2049,
19989,1542,949,1446,1595,49500,72831,112563,49500,,IMU->,-1,-84,2050,2051,
19989,1549,1006,1716,1591,49500,72831,112563,49500,,IMU->,-4,-84,2050,2051,
19927,1546,1098,2100,1594,49500,72831,112563,49500,,IMU->,-2,-82,2051,2052,
19989,1542,1194,2461,1591,49500,72831,112563,49500,,IMU->,-2,-85,2052,2053,
19989,1545,1274,2734,1593,49500,72831,112563,49500,,IMU->,-1,-79,2048,2049,
19989,1541,1316,2874,1597,49500,72831,112563,49500,,IMU->,-1,-82,2048,2049,
19989,1552,1338,2925,1600,49500,72831,112563,49500,,IMU->,-1,-81,2049,2050,
19989,1553,1329,2882,1600,49500,72831,112563,49500,,IMU->,2,-83,2047,2048,
19958,1536,1306,2777,1592,49500,72831,112563,49500,,IMU->,-1,-80,2052,2053,
19989,1554,1273,2666,1597,49500,72831,112563,49500,,IMU->,5,-83,2049,2050,
20324,1550,1244,2551,1593,49500,72831,112563,49500,,IMU->,0,-84,2048,2049,
19958,1534,1209,2436,1588,49500,72831,112563,49500,,IMU->,1,-83,2051,2052,
19958,1541,1178,2325,1596,49500,72831,112563,49500,,IMU->,1,-85,2048,2049,
19958,1536,1164,2245,1592,49500,72831,112563,49500,,IMU->,-3,-86,2050,2051,
19989,1552,1156,2233,1589,49500,72831,112563,49500,,IMU->,-5,-84,2049,2050,
19927,1545,1164,2264,1601,49500,72831,112563,49500,,IMU->,-1,-81,2049,2050,
19958,1547,1176,2339,1594,49500,72831,112563,49500,,IMU->,-3,-84,2048,2049,
19989,1546,1194,2419,1603,49500,72831,112563,49500,,IMU->,-5,-82,2052,2053,
19958,1530,1215,2513,1587,49500,72831,112563,49500,,IMU->,-2,-84,2050,2051,
20355,1546,1230,2572,1588,49500,72831,112563,49500,,IMU->,0,-81,2045,2046,
19958,1551,1258,2605,1599,49500,72831,112563,49500,,IMU->,-3,-81,2053,2054,
19958,1553,1239,2612,1591,49500,72831,112563,49500,,IMU->,0,-82,2050,2051,
19958,1549,1228,2569,1598,49500,72831,112563,49500,,IMU->,1,-84,2049,2050,
19958,1545,1235,2522,1593,49500,72831,112563,49500,,IMU->,-1,-83,2050,2051,
19989,1544,1201,2449,1582,49500,72831,112563,49500,,IMU->,0,-81,2049,2050,
19927,1540,1189,2379,1601,49500,72831,112563,49500,,IMU->,0,-83,2050,2051,
19958,1549,1175,2321,1597,49500,72831,112563,49500,,IMU->,-3,-84,2052,2053,
19989,1543,1158,2276,1593,49500,72831,112563,49500,,IMU->,-1,-83,2049,2050,
19958,1527,1152,2228,1591,49500,72831,112563,49500,,IMU->,-5,-84,2048,2049,
20355,1549,1131,2174,1589,49500,72831,112563,49500,,IMU->,1,-80,2047,2048,
19958,1544,1125,2136,1594,49500,72831,112563,49500,,IMU->,0,-83,2047,2048,
19958,1548,1117,2147,1591,49500,72831,112563,49500,,IMU->,0,-82,2049,2050,
19989,1533,1133,2178,1597,49500,72897,111870,49500,,IMU->,-3,-82,2048,2049,
19958,1542,1289,1459,1599,49500,72897,111870,49500,,IMU->,0,-84,2049,2050,
19958,1556,1291,1473,1590,49500,72897,111870,49500,,IMU->,0,-88,2045,2046,
19927,1548,1297,1462,1596,49500,72897,111870,49500,,IMU->,0,-85,2049,2050,
19958,1541,1276,1456,1595,49500,72897,111870,49500,,IMU->,0,-86,2047,2048,
19958,1540,1278,1426,1592,49500,72897,111870,49500,,IMU->,-2,-84,2050,2051,
20324,1533,1269,1395,1584,49500,72897,111870,49500,,IMU->,0,-86,2050,2051,
19958,1550,1269,1410,1592,49500,72897,111870,49500,,IMU->,-1,-84,2051,2052,
19989,1554,1269,1378,1603,49500,72897,111870,49500,,IMU->,0,-84,2046,2047,
19958,1552,1244,1343,1592,49500,72897,111870,49500,,IMU->,0,-83,2049,2050,
19927,1554,1236,1306,1600,49500,72897,111870,49500,,IMU->,-3,-79,2049,2050,
19989,1536,1237,1286,1572,49500,72897,111870,49500,,IMU->,-3,-83,2051,2052,
19927,1533,1217,1269,1582,49500,72897,111870,49500,,IMU->,-3,-81,2050,2051,
19958,1542,1234,1243,1599,49500,72897,111870,49500,,IMU->,-4,-83,2051,2052,
20324,1556,1217,1206,1587,49500,72897,111870,49500,,IMU->,-2,-83,2051,2052,
19989,1547,1194,1175,1601,49500,72897,111870,49500,,IMU->,-1,-84,2050,2051,
19958,1554,1199,1152,1596,49500,72897,111870,49500,,IMU->,-3,-82,2049,2050,
19989,1548,1187,1121,1590,49500,72897,111870,49500,,IMU->,-5,-80,2049,2050,
19989,1541,1205,1184,1593,49500,72897,111870,49500,,IMU->,-2,-81,2049,2050,
19989,1546,1243,1387,1589,49500,72897,111870,49500,,IMU->,0,-86,2050,2051,
19958,1538,1326,1739,1593,49500,72897,111870,49500,,IMU->,0,-85,2052,2053,
19989,1541,1435,2166,1598,49500,72897,111870,49500,,IMU->,0,-81,2053,2054,
19958,1554,1542,2575,1599,49500,72897,111870,49500,,IMU->,2,-81,2051,2052,
19958,1552,1632,2861,1606,49500,72897,111870,49500,,IMU->,0,-77,2048,2049,
19927,1558,1681,2976,1602,49500,72897,111870,49500,,IMU->,-2,-80,2051,2052,
19989,1544,1702,2979,1598,49500,72897,111870,49500,,IMU->,-3,-84,2050,2051,
19989,1549,1693,2969,1600,49500,72897,111870,49500,,IMU->,1,-80,2048,2049,
20324,1560,1667,2965,1601,49500,72897,111870,49500,,IMU->,-3,-82,2047,2048,
19989,1552,1635,2850,1600,49500,72897,111870,49500,,IMU->,0,-83,2048,2049,
19958,1558,1595,2756,1606,49500,72897,111870,49500,,IMU->,0,-82,2046,2047,
19958,1557,1568,2634,1604,49500,72897,111870,49500,,IMU->,-3,-84,2048,2049,
19989,1540,1540,2536,1580,49500,72897,111870,49500,,IMU->,-2,-83,2048,2049,
19958,1549,1520,2473,1597,49500,72897,111870,49500,,IMU->,0,-82,2051,2052,
19958,1552,1519,2436,1599,49500,72897,111870,49500,,IMU->,4,-85,2052,2053,
19927,1545,1508,2470,1595,49500,72897,111870,49500,,IMU->,0,-83,2041,2042,
19958,1551,1530,2532,1613,49500,72897,111870,49500,,IMU->,2,-84,2047,2048,
20324,1552,1565,2626,1596,49500,72897,111870,49500,,IMU->,0,-85,2048,2049,
19958,1548,1566,2708,1589,49500,72897,111870,49500,,IMU->,0,-80,2045,2046,
19958,1551,1589,2754,1599,49500,72897,111870,49500,,IMU->,-3,-85,2053,2054,
19989,1551,1594,2797,1594,49500,72897,111870,49500,,IMU->,-1,-84,2048,2049,
19989,1553,1590,2808,1608,49500,72897,111870,49500,,IMU->,-1,-83,2049,2050,
19989,1548,1593,2755,1596,49500,72897,111870,49500,,IMU->,-4,-86,2046,2047,
19989,1553,1555,2666,1596,49500,72897,111870,49500,,IMU->,-3,-82,2048,2049,
19958,1555,1553,2602,1605,49500,72897,111870,49500,,IMU->,-4,-84,2051,2052,
19958,1550,1514,2508,1589,49500,72897,111870,49500,,IMU->,1,-85,2050,2051,
19927,1537,1483,2458,1596,49500,72897,111870,49500,,IMU->,-3,-85,2049,2050,
19989,1543,1491,2417,1595,49500,72897,111870,49500,,IMU->,-1,-82,2050,2051,
19958,1544,1475,2357,1588,49500,72897,111870,49500,,IMU->,0,-85,2048,2049,
20324,1551,1455,2280,1600,49500,72897,111870,49500,,IMU->,-3,-86,2050,2051,
19989,1560,1436,2265,1599,49500,72897,111870,49500,,IMU->,-2,-85,2050,2051,
19958,1553,1438,2230,1595,49500,72897,111870,49500,,IMU->,-1,-82,2049,2050,
19958,1552,1426,2212,1589,49500,72897,111870,49500,,IMU->,-4,-81,2048,2049,
19989,1552,1431,2217,1593,49500,72897,111870,49500,,IMU->,1,-85,2047,2048,
19958,1546,1423,2161,1592,49500,72897,111870,49500,,IMU->,0,-85,2047,2048,
19958,1542,1417,2159,1597,49500,72897,111870,49500,,IMU->,0,-84,2050,2051,
19927,1558,1423,2185,1600,49500,72897,111870,49500,,IMU->,-1,-84,2054,2055,
19989,1534,1433,2179,1595,49500,72897,111870,49500,,IMU->,-1,-82,2050,2051,
19989,1550,1421,2173,1588,49500,72897,111870,49500,,IMU->,-2,-85,2055,2056,
19989,1555,1417,2144,1587,49500,72897,111870,49500,,IMU->,-1,-84,2047,2048,
19989,1549,1410,2148,1596,49500,72897,111870,49500,,IMU->,-2,-82,2050,2051,
20324,1553,1424,2159,1597,49500,72897,111870,49500,,IMU->,-1,-84,2046,2047,
19958,1548,1437,2174,1596,49500,72897,111870,49500,,IMU->,-1,-84,2051,2052,
19958,1541,1416,2144,1592,49500,72897,111870,49500,,IMU->,0,-83,2049,2050,
19958,1549,1409,2088,1604,49500,72897,111870,49500,,IMU->,0,-85,2050,2051,
19958,1546,1392,2064,1585,49500,72897,111870,49500,,IMU->,-5,-84,2048,2049,
19958,1541,1383,2047,1598,49500,72897,111870,49500,,IMU->,2,-83,2051,2052,
19927,1546,1382,1994,1594,49500,72897,111870,49500,,IMU->,-1,-85,2048,2049,
