19958,1464,1160,1182,1504,49500,71412,108735,49500,,IMU->,-6,-81,2051,2052,
19958,1462,1160,1169,1513,49500,71412,108735,49500,,IMU->,-10,-80,2053,2054,
19989,1454,1164,1170,1507,49500,71412,108735,49500,,IMU->,-4,-77,2052,2053,
19958,1462,1154,1148,1509,49500,71412,108735,49500,,IMU->,-8,-81,2052,2053,
19989,1456,1147,1117,1503,49500,71412,108735,49500,,IMU->,-4,-82,2045,2046,
19989,1457,1147,1148,1505,49500,71412,108735,49500,,IMU->,-5,-78,2052,2053,
19989,1472,1189,1258,1515,49500,71412,108735,49500,,IMU->,-5,-78,2052,2053,
19958,1457,1234,1472,1502,49500,71412,108735,49500,,IMU->,-6,-79,2048,2049,
19989,1452,1312,1769,1517,49500,71412,108735,49500,,IMU->,-5,-81,2052,2053,
19989,1455,1425,2097,1515,49500,71412,108735,49500,,IMU->,-6,-82,2048,2049,
19989,1445,1481,2292,1503,49500,71412,108735,49500,,IMU->,-3,-82,2052,2053,
19989,1473,1522,2370,1524,49500,71412,108735,49500,,IMU->,-4,-83,2049,2050,
19989,1479,1523,2345,1521,49500,71412,108735,49500,,IMU->,-5,-83,2050,2051,
19989,1467,1494,2266,1520,49500,71412,108735,49500,,IMU->,-5,-81,2052,2053,
20355,1470,1469,2145,1518,49500,71412,108735,49500,,IMU->,-6,-80,2045,2046,
19989,1470,1432,2035,1508,49500,71412,108735,49500,,IMU->,-10,-79,2049,2050,
19989,1461,1390,1890,1518,49500,71412,108735,49500,,IMU->,-8,-82,2047,2048,
19989,1466,1347,1770,1512,49500,71412,108735,49500,,IMU->,-7,-82,2051,2052,
19989,1473,1310,1670,1515,49500,71412,108735,49500,,IMU->,-6,-81,2050,2051,
19989,1462,1301,1614,1515,49500,71412,108735,49500,,IMU->,-7,-78,2050,2051,
19989,1467,1283,1583,1506,49500,71412,108735,49500,,IMU->,-1,-78,2049,2050,
19989,1461,1285,1585,1517,49500,71412,108735,49500,,IMU->,-5,-82,2050,2051,
19989,1462,1301,1643,1515,49500,71412,108735,49500,,IMU->,-6,-82,2050,2051,
19989,1464,1320,1719,1511,49500,71412,108735,49500,,IMU->,-7,-81,2049,2050,
19989,1461,1351,1788,1508,49500,71412,108735,49500,,IMU->,-8,-78,2053,2054,
19958,1470,1361,1837,1514,49500,71412,108735,49500,,IMU->,-6,-82,2051,2052,
19989,1472,1374,1861,1515,49500,71412,108735,49500,,IMU->,-9,-79,2052,2053,
19989,1456,1378,1872,1511,49500,71412,108735,49500,,IMU->,-10,-81,2050,2051,
19989,1467,1379,1870,1514,49500,71412,108735,49500,,IMU->,-5,-82,2045,2046,
19989,1464,1372,1834,1506,49500,71412,108735,49500,,IMU->,-5,-81,2046,2047,
19989,1451,1346,1786,1502,49500,71412,108735,49500,,IMU->,-3,-82,2052,2053,
19989,1469,1345,1740,1526,49500,71412,108735,49500,,IMU->,-6,-82,2050,2051,
19989,1470,1334,1688,1510,49500,71412,108735,49500,,IMU->,-10,-80,2054,2055,
19958,1463,1303,1645,1512,49500,71412,108735,49500,,IMU->,-8,-83,2053,2054,
19989,1453,1302,1586,1514,49500,71412,108735,49500,,IMU->,-2,-82,2050,2051,
19989,1459,1285,1556,1499,49500,71412,108735,49500,,IMU->,-8,-80,2048,2049,
19989,1464,1280,1527,1513,49500,71412,108735,49500,,IMU->,-6,-79,2049,2050,
19989,1466,1277,1514,1515,49500,71412,108735,49500,,IMU->,-4,-82,2051,2052,
20324,1467,1259,1466,1513,49500,71412,108735,49500,,IMU->,-6,-83,2050,2051,
19989,1469,1264,1444,1515,49500,71412,108735,49500,,IMU->,-4,-82,2048,2049,
19958,1462,1252,1454,1503,49500,71412,108735,49500,,IMU->,-6,-80,2047,2048,
19958,1462,1252,1439,1512,49500,71412,108735,49500,,IMU->,-4,-80,2048,2049,
19989,1458,1258,1434,1507,49500,71412,108735,49500,,IMU->,-7,-83,2047,2048,
19958,1456,1243,1437,1501,49500,71412,108735,49500,,IMU->,-8,-84,2047,2048,
19989,1460,1261,1437,1515,49500,71412,108735,49500,,IMU->,-5,-79,2046,2047,
19989,1466,1269,1437,1508,49500,71412,108735,49500,,IMU->,-2,-79,2050,2051,
19989,1459,1256,1418,1504,49500,71412,108735,49500,,IMU->,-6,-80,2046,2047,
19958,1462,1256,1416,1509,49500,71412,108735,49500,,IMU->,-1,-80,2049,2050,
19989,1463,1245,1412,1511,49500,71412,108735,49500,,IMU->,-4,-79,2046,2047,
19989,1449,1243,1371,1506,49500,71412,108735,49500,,IMU->,-5,-81,2048,2049,
19989,1448,1235,1379,1499,49500,71412,108735,49500,,IMU->,-3,-79,2048,2049,
19989,1456,1239,1342,1514,49500,71412,108735,49500,,IMU->,-7,-79,2049,2050,
19989,1461,1228,1314,1508,49500,71412,108735,49500,,IMU->,-5,-80,2047,2048,
19989,1475,1221,1325,1511,49500,71412,108735,49500,,IMU->,-8,-80,2047,2048,
19989,1461,1244,1368,1512,49500,71412,108735,49500,,IMU->,-7,-81,2048,2049,
20324,1463,1284,1537,1502,49500,71412,108735,49500,,IMU->,-7,-78,2046,2047,
19958,1455,1361,1837,1521,49500,71412,108735,49500,,IMU->,-5,-81,2047,2048,
19958,1466,1468,2178,1516,49500,71412,108735,49500,,IMU->,-5,-81,2050,2051,
19989,1472,1543,2425,1523,49500,71412,108735,49500,,IMU->,-4,-79,2050,2051,
19958,1471,1602,2544,1524,49500,71412,108735,49500,,IMU->,-7,-81,2046,2047,
19989,1470,1607,2553,1509,49500,71412,108735,49500,,IMU->,-8,-78,2053,2054,
19958,1470,1593,2486,1515,49500,71412,108735,49500,,IMU->,-6,-82,2048,2049,
19989,1464,1569,2394,1516,49500,71412,108735,49500,,IMU->,-8,-78,2048,2049,
19989,1467,1520,2266,1515,49500,71412,108735,49500,,IMU->,-3,-79,2049,2050,
19989,1471,1485,2116,1522,49500,71412,108735,49500,,IMU->,-7,-84,2046,2047,
19989,1469,1438,1977,1510,49500,71412,108735,49500,,IMU->,-7,-81,2052,2053,
19989,1472,1401,1855,1521,49500,71412,108735,49500,,IMU->,-6,-79,2049,2050,
19989,1462,1379,1790,1516,49500,71412,108735,49500,,IMU->,-7,-80,2048,2049,
19989,1460,1354,1741,1506,49500,71412,108735,49500,,IMU->,-3,-80,2051,2052,
20324,1454,1353,1724,1507,49500,71412,108735,49500,,IMU->,-5,-82,2051,2052,
19958,1468,1377,1788,1509,49500,71412,108735,49500,,IMU->,-5,-80,2048,2049,
19958,1467,1396,1831,1512,49500,71412,108735,49500,,IMU->,-6,-84,2049,2050,
19989,1469,1415,1894,1523,49500,71412,108735,49500,,IMU->,-7,-82,2053,2054,
19958,1482,1428,1966,1519,49500,71412,108735,49500,,IMU->,-6,-81,2050,2051,
19989,1451,1450,2000,1519,49500,71412,108735,49500,,IMU->,-4,-80,2047,2048,
19989,1458,1464,2029,1507,49500,71412,108735,49500,,IMU->,-7,-83,2049,2050,
19989,1466,1458,2003,1511,49500,71412,108735,49500,,IMU->,-7,-86,2047,2048,
19958,1470,1452,1970,1514,49500,71412,108735,49500,,IMU->,-4,-76,2050,2051,
19989,1470,1448,1959,1515,49500,71412,108735,49500,,IMU->,-5,-78,2050,2051,
19989,1467,1451,1936,1521,49500,71412,108735,49500,,IMU->,-6,-78,2047,2048,
19989,1467,1436,1901,1515,49500,71412,108735,49500,,IMU->,-5,-85,2050,2051,
19989,1466,1417,1839,1511,49500,71412,108735,49500,,IMU->,-6,-85,2052,2053,
19989,1455,1404,1784,1508,49500,71412,108735,49500,,IMU->,-7,-81,2049,2050,
19958,1460,1383,1763,1516,49500,71412,108735,49500,,IMU->,-7,-81,2049,2050,
19989,1466,1383,1716,1514,49500,71412,108735,49500,,IMU->,-7,-82,2049,2050,
19989,1460,1368,1674,1506,49500,71412,108735,49500,,IMU->,-9,-79,2048,2049,
20355,1479,1363,1635,1521,49500,71412,108735,49500,,IMU->,-6,-79,2048,2049,
19989,1469,1351,1609,1511,49500,71412,108735,49500,,IMU->,-8,-81,2047,2048,
19958,1459,1332,1595,1506,49500,71412,108735,49500,,IMU->,-5,-81,2049,2050,
19989,1466,1344,1590,1514,49500,71412,108735,49500,,IMU->,-4,-79,2048,2049,
19958,1467,1345,1582,1509,49500,71412,108735,49500,,IMU->,-4,-79,2046,2047,
19958,1469,1348,1563,1511,49500,71412,108735,49500,,IMU->,-8,-82,2049,2050,
19989,1463,1358,1580,1513,49500,71412,108735,49500,,IMU->,-10,-80,2052,2053,
19958,1461,1351,1588,1510,49500,71412,108735,49500,,IMU->,-9,-80,2048,2049,
19989,1465,1345,1569,1510,49500,71412,108735,49500,,IMU->,-5,-80,2050,2051,
19989,1459,1340,1536,1503,49500,71412,108735,49500,,IMU->,0,-81,2046,2047,
19958,1460,1327,1529,1515,49500,71412,108735,49500,,IMU->,-6,-82,2051,2052,
19989,1460,1338,1536,1515,49500,71412,108735,49500,,IMU->,-6,-81,2048,2049,
19989,1461,1326,1502,1514,49500,71412,108735,49500,,IMU->,-4,-83,2050,2051,
19989,1457,1316,1463,1518,49500,71412,108735,49500,,IMU->,-3,-79,2050,2051,
19989,1449,1301,1434,1502,49500,71412,108735,49500,,IMU->,-5,-80,2049,2050,
19989,1464,1295,1414,1507,49500,71412,108735,49500,,IMU->,-8,-79,2050,2051,
19989,1460,1306,1424,1512,49500,71412,108735,49500,,IMU->,-6,-80,2051,2052,
20355,1469,1316,1514,1510,49500,71412,108735,49500,,IMU->,-6,-80,2051,2052,
19958,1460,1368,1706,1514,49500,71412,108735,49500,,IMU->,-6,-77,2046,2047,
19989,1465,1450,1999,1507,49500,71412,108735,49500,,IMU->,-7,-81,2048,2049,
19958,1470,1545,2320,1522,49500,71412,108735,49500,,IMU->,-8,-85,2049,2050,
19958,1464,1612,2490,1519,49500,71412,108735,49500,,IMU->,-6,-80,2048,2049,
19989,1470,1628,2557,1514,49500,71412,108735,49500,,IMU->,-6,-83,2049,2050,
19958,1469,1630,2512,1519,49500,71412,108735,49500,,IMU->,-3,-79,2048,2049,
19989,1463,1616,2448,1506,49500,71412,108735,49500,,IMU->,-6,-79,2048,2049,
19989,1474,1580,2313,1519,49500,71412,108735,49500,,IMU->,-2,-79,2053,2054,
19989,1469,1537,2140,1516,49500,71412,108735,49500,,IMU->,-4,-83,2047,2048,
19958,1466,1483,2036,1515,49500,71412,108735,49500,,IMU->,-7,-83,2048,2049,
19989,1461,1454,1921,1516,49500,71412,108735,49500,,IMU->,-7,-81,2048,2049,
19989,1458,1417,1810,1501,49500,71412,108735,49500,,IMU->,-5,-81,2048,2049,
19989,1464,1386,1724,1512,49500,71412,108735,49500,,IMU->,-5,-79,2051,2052,
19989,1445,1378,1704,1512,49500,71412,108735,49500,,IMU->,-5,-83,2047,2048,
19989,1469,1376,1740,1515,49500,71412,108735,49500,,IMU->,-7,-81,2051,2052,
20324,1469,1411,1800,1518,49500,71214,108207,49500,,IMU->,-6,-79,2050,2051,
19958,1461,1281,1284,1501,49500,71214,108207,49500,,IMU->,-6,-76,2053,2054,
19958,1467,1300,1354,1519,49500,71214,108207,49500,,IMU->,-5,-78,2049,2050,
19989,1472,1335,1418,1519,49500,71214,108207,49500,,IMU->,-5,-80,2047,2048,
19958,1464,1329,1443,1507,49500,71214,108207,49500,,IMU->,-9,-83,2049,2050,
19989,1463,1333,1422,1516,49500,71214,108207,49500,,IMU->,-6,-79,2051,2052,
19989,1466,1325,1398,1504,49500,71214,108207,49500,,IMU->,-4,-84,2048,2049,
19958,1458,1303,1334,1507,49500,71214,108207,49500,,IMU->,-5,-80,2049,2050,
19989,1460,1296,1289,1518,49500,71214,108207,49500,,IMU->,-7,-84,2049,2050,
19989,1472,1270,1230,1510,49500,71214,108207,49500,,IMU->,-7,-85,2047,2048,
19989,1465,1254,1157,1521,49500,71214,108207,49500,,IMU->,-5,-79,2049,2050,
19989,1464,1240,1100,1507,49500,71214,108207,49500,,IMU->,-2,-77,2047,2048,
19989,1460,1212,1054,1509,49500,71214,108207,49500,,IMU->,0,-80,2051,2052,
19958,1455,1216,1010,1516,49500,71214,108207,49500,,IMU->,-6,-83,2049,2050,
19989,1468,1183,964,1501,49500,71214,108207,49500,,IMU->,-6,-80,2049,2050,
19989,1458,1172,920,1515,49500,71214,108207,49500,,IMU->,-7,-80,2049,2050,
20355,1465,1184,909,1508,49500,71214,108207,49500,,IMU->,-9,-75,2051,2052,
19958,1467,1175,918,1515,49500,71214,108207,49500,,IMU->,-7,-82,2049,2050,
19958,1454,1172,885,1512,49500,71214,108207,49500,,IMU->,-6,-80,2044,2045,
19989,1464,1158,873,1514,49500,71214,108207,49500,,IMU->,-5,-84,2047,2048,
19958,1458,1162,855,1508,49500,71214,108207,49500,,IMU->,-6,-79,2048,2049,
19989,1448,1159,857,1500,49500,71214,108207,49500,,IMU->,-8,-80,2052,2053,
19958,1468,1168,854,1513,49500,71214,108207,49500,,IMU->,-2,-79,2053,2054,
19989,1466,1165,825,1510,49500,71214,108207,49500,,IMU->,-4,-77,2050,2051,
19989,1456,1136,812,1505,49500,71214,108207,49500,,IMU->,-6,-81,2046,2047,
19989,1463,1157,829,1522,49500,71214,108207,49500,,IMU->,-5,-80,2052,2053,
19989,1454,1183,914,1504,49500,71214,108207,49500,,IMU->,-6,-78,2050,2051,
19989,1457,1216,1078,1500,49500,71214,108207,49500,,IMU->,-3,-79,2049,2050,
19989,1460,1288,1334,1515,49500,71214,108207,49500,,IMU->,-9,-79,2051,2052,
19989,1460,1369,1617,1508,49500,71214,108207,49500,,IMU->,-6,-81,2052,2053,
19958,1468,1450,1830,1525,49500,71214,108207,49500,,IMU->,-6,-81,2050,2051,
19989,1471,1499,1926,1511,49500,71214,108207,49500,,IMU->,-8,-85,2051,2052,
19989,1466,1486,1901,1512,49500,71214,108207,49500,,IMU->,-7,-84,2048,2049,
20324,1472,1475,1802,1518,49500,71214,108207,49500,,IMU->,-6,-81,2046,2047,
19958,1468,1419,1665,1509,49500,71214,108207,49500,,IMU->,-6,-78,2046,2047,
19989,1461,1381,1517,1522,49500,71214,108207,49500,,IMU->,-3,-82,2052,2053,
19958,1470,1338,1342,1516,49500,71214,108207,49500,,IMU->,-4,-82,2051,2052,
19989,1467,1277,1173,1507,49500,71214,108207,49500,,IMU->,-6,-80,2051,2052,
19958,1461,1233,1027,1516,49500,71214,108207,49500,,IMU->,-6,-80,2047,2048,
19989,1463,1195,944,1503,49500,71214,108207,49500,,IMU->,-10,-79,2046,2047,
19989,1454,1180,894,1504,49500,71214,108207,49500,,IMU->,-3,-80,2048,2049,
19989,1457,1197,938,1506,49500,71214,108207,49500,,IMU->,-6,-82,2052,2053,
19989,1467,1208,977,1512,49500,71214,108207,49500,,IMU->,-6,-84,2047,2048,
19989,1462,1225,1025,1519,49500,71214,108207,49500,,IMU->,-5,-79,2050,2051,
19958,1466,1248,1126,1513,49500,71214,108207,49500,,IMU->,-6,-80,2051,2052,
19989,1461,1266,1181,1511,49500,71214,108207,49500,,IMU->,-8,-86,2047,2048,
19989,1441,1280,1214,1501,49500,71214,108207,49500,,IMU->,-4,-80,2052,2053,
19989,1464,1281,1219,1503,49500,71214,108207,49500,,IMU->,-7,-79,2050,2051,
19989,1464,1291,1196,1515,49500,71214,108207,49500,,IMU->,-5,-77,2053,2054,
19989,1469,1276,1193,1517,49500,71214,108207,49500,,IMU->,-6,-77,2047,2048,
20355,1470,1272,1131,1515,49500,71214,108207,49500,,IMU->,-7,-80,2046,2047,
19958,1462,1253,1066,1506,49500,71214,108207,49500,,IMU->,-8,-80,2047,2048,
19989,1468,1227,1027,1510,49500,71214,108207,49500,,IMU->,-5,-80,2049,2050,
19958,1456,1223,959,1504,49500,71214,108207,49500,,IMU->,-7,-80,2049,2050,
19958,1455,1200,926,1504,49500,71214,108207,49500,,IMU->,-2,-78,2049,2050,
19989,1460,1198,896,1516,49500,71214,108207,49500,,IMU->,-2,-80,2051,2052,
19958,1462,1179,835,1506,49500,71214,108207,49500,,IMU->,-7,-83,2050,2051,
19989,1467,1167,811,1511,49500,71214,108207,49500,,IMU->,-4,-81,2048,2049,
19958,1462,1177,814,1515,49500,71214,108207,49500,,IMU->,-7,-79,2047,2048,
19989,1460,1166,798,1497,49500,71214,108207,49500,,IMU->,-5,-83,2048,2049,
19989,1451,1151,762,1512,49500,71214,108207,49500,,IMU->,-5,-82,2051,2052,
19989,1451,1158,757,1512,49500,71214,108207,49500,,IMU->,-4,-81,2050,2051,
19989,1455,1156,759,1501,49500,71214,108207,49500,,IMU->,-5,-81,2051,2052,
19989,1443,1174,771,1509,49500,71214,108207,49500,,IMU->,-6,-77,2052,2053,
19989,1476,1166,767,1515,49500,71214,108207,49500,,IMU->,-9,-81,2050,2051,
19989,1472,1144,715,1511,49500,71214,108207,49500,,IMU->,-4,-78,2045,2046,
20324,1453,1145,701,1501,49500,71214,108207,49500,,IMU->,-8,-81,2051,2052,
19958,1465,1148,713,1506,49500,71214,108207,49500,,IMU->,-7,-84,2048,2049,
19958,1459,1151,705,1511,49500,71214,108207,49500,,IMU->,-6,-83,2049,2050,
19989,1458,1148,719,1512,49500,71214,108207,49500,,IMU->,-4,-85,2048,2049,
19958,1467,1176,802,1512,49500,71214,108207,49500,,IMU->,-11,-80,2047,2048,
19989,1453,1247,1071,1509,49500,71214,108207,49500,,IMU->,-8,-82,2048,2049,
19958,1462,1357,1454,1510,49500,71214,108207,49500,,IMU->,-8,-81,2053,2054,
19958,1460,1468,1768,1512,49500,71214,108207,49500,,IMU->,-10,-84,2047,2048,
19989,1464,1522,1948,1521,49500,71214,108207,49500,,IMU->,-10,-81,2052,2053,
19989,1475,1558,2018,1528,49500,71214,108207,49500,,IMU->,-3,-81,2046,2047,
19989,1461,1562,1980,1519,49500,71214,108207,49500,,IMU->,-5,-78,2048,2049,
19989,1475,1539,1897,1526,49500,71214,108207,49500,,IMU->,-6,-82,2050,2051,
19989,1460,1501,1747,1518,49500,71214,108207,49500,,IMU->,-5,-81,2048,2049,
19989,1461,1429,1588,1503,49500,71214,108207,49500,,IMU->,-6,-82,2048,2049,
19989,1466,1400,1444,1520,49500,71214,108207,49500,,IMU->,-8,-79,2049,2050,
20355,1469,1374,1335,1505,49500,71214,108207,49500,,IMU->,-4,-79,2051,2052,
19989,1464,1323,1217,1510,49500,71214,108207,49500,,IMU->,-8,-82,2048,2049,
19958,1469,1319,1136,1523,49500,71214,108207,49500,,IMU->,-8,-80,2047,2048,
19958,1469,1295,1114,1510,49500,71214,108207,49500,,IMU->,-4,-78,2049,2050,
19989,1463,1293,1137,1514,49500,71214,108207,49500,,IMU->,-2,-80,2050,2051,
19958,1458,1314,1182,1504,49500,71214,108207,49500,,IMU->,-6,-82,2050,2051,
19989,1461,1323,1233,1499,49500,71214,108207,49500,,IMU->,-5,-82,2049,2050,
19958,1461,1354,1322,1518,49500,71214,108207,49500,,IMU->,-6,-81,2045,2046,
19989,1466,1383,1403,1517,49500,71214,108207,49500,,IMU->,-10,-79,2051,2052,
19989,1469,1398,1441,1523,49500,71214,108207,49500,,IMU->,-7,-79,2050,2051,
19989,1468,1403,1438,1512,49500,71214,108207,49500,,IMU->,-4,-82,2047,2048,
19989,1463,1380,1416,1504,49500,71214,108207,49500,,IMU->,-5,-82,2052,2053,
19989,1456,1380,1360,1509,49500,71214,108207,49500,,IMU->,-10,-82,2052,2053,
19989,1463,1365,1344,1511,49500,71214,108207,49500,,IMU->,-6,-80,2048,2049,
19989,1462,1350,1270,1513,49500,71214,108207,49500,,IMU->,-6,-74,2045,2046,
19958,1455,1338,1216,1512,49500,71214,108207,49500,,IMU->,-8,-81,2048,2049,
19989,1471,1325,1167,1516,49500,71214,108207,49500,,IMU->,-8,-81,2051,2052,
20355,1465,1306,1108,1508,49500,71214,108207,49500,,IMU->,-7,-83,2051,2052,
19958,1464,1291,1107,1508,49500,71214,108207,49500,,IMU->,-3,-78,2048,2049,
19989,1469,1279,1059,1511,49500,71214,108207,49500,,IMU->,-3,-82,2051,2052,
19958,1462,1280,1011,1502,49500,71214,108207,49500,,IMU->,-8,-81,2050,2051,
19958,1464,1263,994,1511,49500,71214,108207,49500,,IMU->,-5,-80,2048,2049,
19989,1468,1276,968,1523,49500,71214,108207,49500,,IMU->,-7,-81,2048,2049,
19989,1466,1258,960,1495,49500,71214,108207,49500,,IMU->,-6,-78,2052,2053,
19989,1451,1239,936,1511,49500,71214,108207,49500,,IMU->,-7,-78,2046,2047,
19958,1461,1255,933,1503,49500,71214,108207,49500,,IMU->,-5,-79,2049,2050,
19989,1457,1253,951,1510,49500,71214,108207,49500,,IMU->,-11,-83,2050,2051,
19989,1459,1269,938,1515,49500,71214,108207,49500,,IMU->,-5,-79,2049,2050,
19989,1460,1249,927,1510,49500,71214,108207,49500,,IMU->,-7,-80,2049,2050,
19958,1461,1244,912,1520,49500,71214,108207,49500,,IMU->,-6,-78,2047,2048,
19989,1460,1247,895,1503,49500,71214,108207,49500,,IMU->,-5,-81,2051,2052,
19989,1460,1227,888,1497,49500,71214,108207,49500,,IMU->,-5,-83,2049,2050,
19989,1467,1235,865,1514,49500,71214,108207,49500,,IMU->,-3,-82,2050,2051,
19989,1465,1224,856,1506,49500,71214,108207,49500,,IMU->,-6,-79,2052,2053,
20355,1463,1229,893,1514,49500,71214,108207,49500,,IMU->,-7,-83,2047,2048,
19989,1466,1283,1048,1511,49500,71214,108207,49500,,IMU->,-6,-79,2051,2052,
19989,1464,1360,1324,1510,49500,71214,108207,49500,,IMU->,-8,-79,2048,2049,
19989,1464,1466,1703,1512,49500,71214,108207,49500,,IMU->,-7,-81,2048,2049,
19989,1473,1553,1979,1517,49500,71214,108207,49500,,IMU->,-9,-78,2051,2052,
19989,1471,1594,2109,1519,49500,71214,108207,49500,,IMU->,-8,-82,2046,2047,
19989,1474,1634,2137,1518,49500,71214,108207,49500,,IMU->,-6,-83,2051,2052,
19989,1482,1619,2091,1520,49500,71214,108207,49500,,IMU->,-5,-84,2047,2048,
19989,1472,1601,1994,1528,49500,71214,108207,49500,,IMU->,-10,-80,2048,2049,
19989,1475,1564,1887,1520,49500,71214,108207,49500,,IMU->,-6,-78,2048,2049,
19989,1465,1519,1740,1516,49500,71214,108207,49500,,IMU->,-6,-76,2050,2051,
19989,1467,1486,1605,1515,49500,71214,108207,49500,,IMU->,-2,-80,2048,2049,
19989,1462,1437,1491,1510,49500,71214,108207,49500,,IMU->,-7,-82,2050,2051,
19958,1463,1413,1376,1516,49500,71214,108207,49500,,IMU->,-5,-80,2046,2047,
19989,1467,1400,1350,1516,49500,71214,108207,49500,,IMU->,-8,-80,2052,2053,
19989,1466,1397,1345,1516,49500,71214,108207,49500,,IMU->,-3,-77,2048,2049,
19989,1462,1399,1340,1512,49500,71214,108207,49500,,IMU->,-3,-83,2050,2051,
19989,1469,1413,1412,1510,49500,71214,108207,49500,,IMU->,-7,-83,2044,2045,
19989,1469,1446,1495,1521,49500,71214,108207,49500,,IMU->,-7,-82,2050,2051,
19958,1461,1460,1576,1516,49500,71214,108207,49500,,IMU->,-5,-79,2050,2051,
19989,1466,1479,1625,1518,49500,71214,108207,49500,,IMU->,-2,-79,2048,2049,
19989,1451,1497,1642,1513,49500,71214,108207,49500,,IMU->,-8,-84,2049,2050,
19989,1460,1490,1654,1510,49500,71214,108207,49500,,IMU->,-8,-83,2050,2051,
19989,1469,1498,1617,1522,49500,71214,108207,49500,,IMU->,-6,-82,2048,2049,
20355,1473,1481,1558,1514,49500,71214,108207,49500,,IMU->,-4,-82,2054,2055,
19989,1473,1454,1493,1521,49500,71214,108207,49500,,IMU->,-1,-79,2049,2050,
19989,1471,1440,1424,1516,49500,71214,108207,49500,,IMU->,-7,-80,2048,2049,
19989,1464,1427,1394,1510,49500,71214,108207,49500,,IMU->,-8,-81,2053,2054,
19989,1467,1425,1350,1514,49500,71214,108207,49500,,IMU->,-7,-78,2053,2054,
19989,1459,1393,1306,1506,49500,71214,108207,49500,,IMU->,-8,-77,2047,2048,
19989,1470,1368,1262,1516,49500,71214,108207,49500,,IMU->,-9,-81,2047,2048,
19989,1467,1384,1241,1511,49500,71214,108207,49500,,IMU->,-5,-82,2049,2050,
19989,1464,1379,1219,1505,49500,71214,108207,49500,,IMU->,-3,-78,2049,2050,
19989,1469,1368,1189,1518,49500,71214,108207,49500,,IMU->,-5,-80,2050,2051,
19989,1471,1362,1178,1517,49500,71214,108207,49500,,IMU->,-5,-79,2048,2049,
19958,1463,1361,1163,1506,49500,71049,108141,49500,,IMU->,-7,-81,2048,2049,
19989,1455,1223,1169,1510,49500,71049,108141,49500,,IMU->,-5,-81,2047,2048,
19989,1465,1235,1194,1508,49500,71049,108141,49500,,IMU->,-3,-79,2051,2052,
19989,1462,1229,1158,1516,49500,71049,108141,49500,,IMU->,-9,-78,2051,2052,
19989,1464,1224,1163,1514,49500,71049,108141,49500,,IMU->,-6,-80,2047,2048,
19989,1466,1227,1172,1513,49500,71049,108141,49500,,IMU->,-8,-80,2049,2050,
19989,1457,1229,1157,1513,49500,71049,108141,49500,,IMU->,-4,-82,2049,2050,
19989,1457,1217,1129,1513,49500,71049,108141,49500,,IMU->,-3,-81,2049,2050,
19989,1464,1208,1082,1522,49500,71049,108141,49500,,IMU->,-8,-84,2049,2050,
19989,1465,1192,1056,1509,49500,71049,108141,49500,,IMU->,-7,-82,2049,2050,
19958,1464,1190,1070,1514,49500,71049,108141,49500,,IMU->,-6,-82,2052,2053,
19989,1468,1204,1042,1510,49500,71049,108141,49500,,IMU->,-4,-79,2048,2049,
19989,1468,1196,1048,1507,49500,71049,108141,49500,,IMU->,-7,-79,2049,2050,
19989,1466,1210,1102,1514,49500,71049,108141,49500,,IMU->,-4,-79,2051,2052,
20355,1457,1262,1314,1509,49500,71049,108141,49500,,IMU->,-7,-76,2050,2051,
19958,1477,1363,1692,1530,49500,71049,108141,49500,,IMU->,-4,-84,2052,2053,
19989,1474,1482,2038,1519,49500,71049,108141,49500,,IMU->,-4,-81,2047,2048,
19958,1473,1535,2223,1516,49500,71049,108141,49500,,IMU->,-5,-80,2046,2047,
19958,1478,1582,2296,1531,49500,71049,108141,49500,,IMU->,-3,-83,2047,2048,
19989,1471,1588,2290,1518,49500,71049,108141,49500,,IMU->,-6,-80,2049,2050,
19958,1469,1563,2222,1521,49500,71049,108141,49500,,IMU->,-6,-81,2051,2052,
19989,1475,1548,2107,1521,49500,71049,108141,49500,,IMU->,-3,-79,2045,2046,
19989,1477,1504,1975,1515,49500,71049,108141,49500,,IMU->,-6,-76,2045,2046,
19989,1473,1467,1836,1529,49500,71049,108141,49500,,IMU->,-3,-81,2049,2050,
19958,1476,1430,1715,1523,49500,71049,108141,49500,,IMU->,-3,-83,2051,2052,
19989,1463,1381,1592,1516,49500,71049,108141,49500,,IMU->,-9,-83,2049,2050,
19989,1454,1349,1499,1514,49500,71049,108141,49500,,IMU->,-7,-78,2050,2051,
19989,1451,1338,1477,1507,49500,71049,108141,49500,,IMU->,-6,-82,2047,2048,
19989,1469,1351,1498,1522,49500,71049,108141,49500,,IMU->,-2,-81,2048,2049,
19989,1470,1368,1545,1522,49500,71049,108141,49500,,IMU->,-5,-81,2048,2049,
19989,1481,1375,1623,1527,49500,71049,108141,49500,,IMU->,-6,-81,2049,2050,
20355,1470,1411,1691,1519,49500,71049,108141,49500,,IMU->,-7,-80,2048,2049,
19989,1468,1429,1776,1511,49500,71049,108141,49500,,IMU->,-4,-78,2048,2049,
19989,1472,1445,1815,1518,49500,71049,108141,49500,,IMU->,-6,-78,2048,2049,
19989,1469,1453,1852,1517,49500,71049,108141,49500,,IMU->,-6,-80,2049,2050,
19989,1474,1451,1832,1524,49500,71049,108141,49500,,IMU->,-7,-80,2049,2050,
19989,1470,1447,1788,1519,49500,71049,108141,49500,,IMU->,-6,-82,2048,2049,
19989,1472,1430,1755,1521,49500,71049,108141,49500,,IMU->,-5,-81,2048,2049,
19989,1477,1420,1680,1523,49500,71049,108141,49500,,IMU->,-6,-79,2048,2049,
19989,1462,1393,1624,1510,49500,71049,108141,49500,,IMU->,-7,-76,2048,2049,
19989,1468,1373,1574,1525,49500,71049,108141,49500,,IMU->,-7,-83,2048,2049,
19989,1474,1374,1531,1513,49500,71049,108141,49500,,IMU->,-5,-81,2048,2049,
19958,1461,1357,1503,1503,49500,71049,108141,49500,,IMU->,-5,-81,2052,2053,
19989,1479,1355,1477,1528,49500,71049,108141,49500,,IMU->,-5,-81,2048,2049,
19989,1472,1348,1447,1506,49500,71049,108141,49500,,IMU->,-6,-78,2051,2052,
19989,1459,1319,1401,1516,49500,71049,108141,49500,,IMU->,-7,-82,2046,2047,
19989,1464,1323,1376,1516,49500,71049,108141,49500,,IMU->,-4,-83,2051,2052,
19989,1461,1315,1391,1501,49500,71049,108141,49500,,IMU->,-9,-82,2045,2046,
19989,1465,1327,1396,1522,49500,71049,108141,49500,,IMU->,-8,-78,2052,2053,
19989,1470,1331,1393,1517,49500,71049,108141,49500,,IMU->,-9,-78,2049,2050,
19958,1466,1315,1383,1522,49500,71049,108141,49500,,IMU->,-7,-78,2046,2047,
19989,1460,1324,1369,1520,49500,71049,108141,49500,,IMU->,-5,-84,2046,2047,
19989,1471,1315,1373,1505,49500,71049,108141,49500,,IMU->,-4,-79,2044,2045,
19989,1465,1315,1357,1517,49500,71049,108141,49500,,IMU->,-4,-81,2050,2051,
19989,1473,1323,1367,1521,49500,71049,108141,49500,,IMU->,-8,-83,2047,2048,
20324,1469,1319,1349,1514,49500,71049,108141,49500,,IMU->,-5,-82,2047,2048,
19989,1462,1318,1344,1523,49500,71049,108141,49500,,IMU->,-11,-81,2050,2051,
19958,1480,1317,1324,1515,49500,71049,108141,49500,,IMU->,-4,-82,2050,2051,
19958,1468,1295,1269,1512,49500,71049,108141,49500,,IMU->,-4,-81,2049,2050,
19989,1457,1275,1209,1510,49500,71049,108141,49500,,IMU->,-6,-81,2047,2048,
19958,1464,1261,1205,1516,49500,71049,108141,49500,,IMU->,-3,-79,2049,2050,
19989,1460,1274,1217,1509,49500,71049,108141,49500,,IMU->,-6,-75,2047,2048,
19989,1468,1293,1302,1513,49500,71049,108141,49500,,IMU->,-7,-78,2047,2048,
19989,1477,1359,1511,1528,49500,71049,108141,49500,,IMU->,-6,-80,2052,2053,
19958,1468,1450,1860,1517,49500,71049,108141,49500,,IMU->,-8,-82,2049,2050,
19989,1472,1555,2187,1519,49500,71049,108141,49500,,IMU->,-8,-82,2048,2049,
19989,1469,1632,2359,1520,49500,71049,108141,49500,,IMU->,-3,-76,2048,2049,
19989,1462,1642,2412,1514,49500,71049,108141,49500,,IMU->,-6,-77,2049,2050,
19989,1464,1637,2384,1526,49500,71049,108141,49500,,IMU->,-6,-81,2053,2054,
19989,1481,1613,2262,1528,49500,71049,108141,49500,,IMU->,-6,-84,2047,2048,
20324,1482,1581,2136,1531,49500,71049,108141,49500,,IMU->,-6,-78,2048,2049,
19958,1474,1527,1961,1521,49500,71049,108141,49500,,IMU->,-6,-80,2049,2050,
19958,1473,1469,1786,1508,49500,71049,108141,49500,,IMU->,-3,-80,2049,2050,
19989,1470,1414,1626,1520,49500,71049,108141,49500,,IMU->,-6,-83,2047,2048,
19958,1469,1377,1497,1517,49500,71049,108141,49500,,IMU->,-11,-82,2050,2051,
19989,1468,1336,1418,1511,49500,71049,108141,49500,,IMU->,-7,-80,2049,2050,
19989,1466,1350,1416,1522,49500,71049,108141,49500,,IMU->,-8,-82,2049,2050,
19989,1474,1367,1465,1515,49500,71049,108141,49500,,IMU->,-8,-76,2049,2050,
19958,1461,1374,1520,1510,49500,71049,108141,49500,,IMU->,-7,-81,2048,2049,
19989,1468,1397,1622,1519,49500,71049,108141,49500,,IMU->,-6,-78,2049,2050,
19989,1476,1430,1719,1520,49500,71049,108141,49500,,IMU->,-6,-82,2052,2053,
19989,1459,1455,1774,1518,49500,71049,108141,49500,,IMU->,-4,-81,2053,2054,
19989,1467,1466,1805,1520,49500,71049,108141,49500,,IMU->,-4,-82,2050,2051,
19989,1473,1463,1778,1518,49500,71049,108141,49500,,IMU->,-5,-80,2052,2053,
19989,1462,1447,1724,1521,49500,71049,108141,49500,,IMU->,-9,-79,2048,2049,
19989,1461,1437,1704,1517,49500,71049,108141,49500,,IMU->,-7,-77,2051,2052,
20324,1461,1432,1630,1511,49500,71049,108141,49500,,IMU->,-9,-80,2051,2052,
19989,1467,1415,1582,1511,49500,71049,108141,49500,,IMU->,-7,-78,2046,2047,
19989,1477,1393,1522,1519,49500,71049,108141,49500,,IMU->,-7,-79,2050,2051,
19958,1471,1391,1485,1520,49500,71049,108141,49500,,IMU->,-7,-78,2049,2050,
19958,1473,1368,1456,1524,49500,71049,108141,49500,,IMU->,-7,-80,2051,2052,
19989,1457,1351,1396,1514,49500,71049,108141,49500,,IMU->,-3,-78,2049,2050,
19958,1461,1333,1376,1508,49500,71049,108141,49500,,IMU->,-9,-82,2048,2049,
19989,1471,1342,1342,1516,49500,71049,108141,49500,,IMU->,-10,-80,2051,2052,
19958,1461,1338,1331,1510,49500,71049,108141,49500,,IMU->,-7,-81,2051,2052,
19989,1466,1331,1332,1520,49500,71049,108141,49500,,IMU->,-7,-81,2050,2051,
19989,1470,1341,1323,1525,49500,71049,108141,49500,,IMU->,-9,-79,2048,2049,
19989,1463,1334,1310,1510,49500,71049,108141,49500,,IMU->,-3,-81,2045,2046,
19989,1467,1328,1300,1513,49500,71049,108141,49500,,IMU->,-7,-81,2048,2049,
19989,1460,1331,1285,1516,49500,71049,108141,49500,,IMU->,-5,-81,2049,2050,
19958,1460,1312,1274,1505,49500,71049,108141,49500,,IMU->,-4,-80,2050,2051,
19989,1470,1326,1268,1516,49500,71049,108141,49500,,IMU->,-4,-78,2048,2049,
19989,1466,1315,1255,1512,49500,71049,108141,49500,,IMU->,-4,-79,2050,2051,
20355,1468,1315,1238,1518,49500,71049,108141,49500,,IMU->,-5,-80,2053,2054,
19989,1471,1310,1215,1518,49500,71049,108141,49500,,IMU->,-7,-81,2047,2048,
19958,1470,1303,1258,1512,49500,71049,108141,49500,,IMU->,-5,-79,2046,2047,
19989,1465,1343,1367,1511,49500,71049,108141,49500,,IMU->,-8,-82,2050,2051,
19958,1463,1418,1638,1510,49500,71049,108141,49500,,IMU->,-6,-81,2054,2055,
19958,1472,1522,2013,1525,49500,71049,108141,49500,,IMU->,-11,-83,2051,2052,
19989,1472,1631,2297,1522,49500,71049,108141,49500,,IMU->,-10,-80,2051,2052,
19958,1476,1671,2446,1518,49500,71049,108141,49500,,IMU->,-9,-76,2046,2047,
19989,1470,1701,2470,1526,49500,71049,108141,49500,,IMU->,-8,-80,2048,2049,
19989,1470,1681,2418,1519,49500,71049,108141,49500,,IMU->,-6,-83,2051,2052,
19989,1474,1658,2317,1521,49500,71049,108141,49500,,IMU->,-6,-79,2049,2050,
19958,1469,1635,2207,1522,49500,71049,108141,49500,,IMU->,-7,-80,2049,2050,
19989,1469,1591,2079,1524,49500,71049,108141,49500,,IMU->,-7,-78,2048,2049,
19989,1468,1549,1920,1523,49500,71049,108141,49500,,IMU->,-6,-76,2048,2049,
19989,1475,1497,1770,1511,49500,71049,108141,49500,,IMU->,-8,-79,2047,2048,
19989,1480,1463,1666,1520,49500,71049,108141,49500,,IMU->,-8,-78,2045,2046,
19989,1477,1446,1617,1511,49500,71049,108141,49500,,IMU->,-5,-81,2049,2050,
20355,1475,1440,1618,1517,49500,71049,108141,49500,,IMU->,-5,-81,2052,2053,
19989,1472,1457,1647,1518,49500,71049,108141,49500,,IMU->,-6,-79,2050,2051,
19989,1465,1473,1720,1509,49500,71049,108141,49500,,IMU->,-6,-81,2048,2049,
19989,1470,1502,1833,1520,49500,71049,108141,49500,,IMU->,-5,-81,2047,2048,
19989,1474,1528,1894,1523,49500,71049,108141,49500,,IMU->,-10,-79,2050,2051,
19989,1474,1533,1983,1516,49500,71049,108141,49500,,IMU->,-7,-81,2051,2052,
19989,1474,1561,1996,1519,49500,71049,108141,49500,,IMU->,-7,-80,2046,2047,
19989,1472,1570,2005,1514,49500,71049,108141,49500,,IMU->,-6,-82,2047,2048,
19989,1476,1560,1947,1524,49500,71049,108141,49500,,IMU->,-6,-84,2049,2050,
19989,1473,1544,1896,1518,49500,71049,108141,49500,,IMU->,-7,-81,2052,2053,
19989,1470,1512,1841,1517,49500,71049,108141,49500,,IMU->,-6,-79,2050,2051,
19989,1468,1499,1790,1529,49500,71049,108141,49500,,IMU->,-9,-81,2047,2048,
19958,1464,1491,1730,1506,49500,71049,108141,49500,,IMU->,-6,-77,2051,2052,
19989,1464,1476,1701,1519,49500,71049,108141,49500,,IMU->,-10,-83,2048,2049,
19989,1472,1472,1656,1521,49500,71049,108141,49500,,IMU->,-6,-83,2048,2049,
19989,1471,1450,1629,1511,49500,71049,108141,49500,,IMU->,-3,-82,2052,2053,
19989,1464,1440,1587,1515,49500,71049,108141,49500,,IMU->,-6,-82,2048,2049,
19989,1465,1442,1576,1507,49500,71049,108141,49500,,IMU->,-6,-76,2050,2051,
19989,1472,1435,1539,1517,49500,71049,108141,49500,,IMU->,-5,-83,2049,2050,
19989,1469,1419,1495,1515,49500,71049,108141,49500,,IMU->,-6,-81,2047,2048,
19958,1466,1400,1495,1510,49500,71049,108141,49500,,IMU->,-7,-84,2050,2051,
19989,1450,1405,1487,1520,49500,71049,108141,49500,,IMU->,-8,-83,2048,2049,
19989,1470,1413,1489,1510,49500,71049,108141,49500,,IMU->,-5,-80,2053,2054,
19989,1468,1401,1476,1515,49500,71049,108141,49500,,IMU->,-7,-82,2049,2050,
20355,1463,1402,1465,1518,49500,71049,108141,49500,,IMU->,-9,-79,2049,2050,
19958,1476,1394,1466,1516,49500,71049,108141,49500,,IMU->,-5,-80,2046,2047,
19989,1470,1392,1443,1520,49500,71049,108141,49500,,IMU->,-8,-82,2045,2046,
19958,1466,1393,1434,1516,49500,71049,108141,49500,,IMU->,-3,-80,2048,2049,
19958,1471,1376,1382,1514,49500,71049,108141,49500,,IMU->,-4,-80,2051,2052,
19989,1465,1355,1355,1511,49500,71049,108141,49500,,IMU->,-7,-80,2050,2051,
19927,1461,1348,1344,1510,49500,70785,107712,49500,,IMU->,-7,-79,2045,2046,
19989,1466,1077,912,1523,49500,70785,107712,49500,,IMU->,-9,-80,2051,2052,
19989,1465,1099,1000,1506,49500,70785,107712,49500,,IMU->,-6,-82,2048,2049,
19989,1466,1158,1267,1521,49500,70785,107712,49500,,IMU->,-7,-82,2051,2052,
19989,1471,1295,1701,1522,49500,70785,107712,49500,,IMU->,-6,-85,2046,2047,
19989,1469,1410,2052,1517,49500,70785,107712,49500,,IMU->,-9,-82,2054,2055,
19989,1464,1478,2226,1523,49500,70785,107712,49500,,IMU->,-6,-79,2049,2050,
19989,1466,1496,2280,1517,49500,70785,107712,49500,,IMU->,-7,-79,2050,2051,
19989,1464,1495,2256,1524,49500,70785,107712,49500,,IMU->,-6,-82,2047,2048,
19989,1497,1491,2175,1528,49500,70785,107712,49500,,IMU->,-8,-81,2048,2049,
19989,1483,1447,2076,1523,49500,70785,107712,49500,,IMU->,-5,-79,2049,2050,
20355,1478,1409,1930,1528,49500,70785,107712,49500,,IMU->,-2,-80,2050,2051,
19989,1469,1377,1803,1515,49500,70785,107712,49500,,IMU->,-5,-81,2049,2050,
19989,1472,1330,1678,1514,49500,70785,107712,49500,,IMU->,-6,-81,2050,2051,
19989,1474,1302,1577,1522,49500,70785,107712,49500,,IMU->,-6,-79,2047,2048,
19989,1475,1271,1513,1520,49500,70785,107712,49500,,IMU->,-8,-78,2048,2049,
19989,1470,1259,1461,1522,49500,70785,107712,49500,,IMU->,-6,-80,2053,2054,
19989,1476,1270,1495,1520,49500,70785,107712,49500,,IMU->,-10,-82,2045,2046,
19989,1473,1284,1550,1518,49500,70785,107712,49500,,IMU->,-6,-80,2051,2052,
19989,1462,1307,1607,1521,49500,70785,107712,49500,,IMU->,-8,-81,2050,2051,
19989,1477,1328,1691,1526,49500,70785,107712,49500,,IMU->,-7,-81,2047,2048,
19989,1475,1351,1763,1521,49500,70785,107712,49500,,IMU->,-11,-77,2049,2050,
19989,1462,1375,1826,1521,49500,70785,107712,49500,,IMU->,-6,-82,2049,2050,
19989,1484,1384,1834,1526,49500,70785,107712,49500,,IMU->,-9,-80,2049,2050,
19958,1472,1374,1782,1517,49500,70785,107712,49500,,IMU->,-2,-80,2047,2048,
19989,1466,1344,1744,1520,49500,70785,107712,49500,,IMU->,-6,-82,2047,2048,
19989,1470,1331,1678,1522,49500,70785,107712,49500,,IMU->,-5,-82,2052,2053,
19989,1475,1312,1622,1506,49500,70785,107712,49500,,IMU->,-8,-83,2049,2050,
19989,1471,1303,1570,1523,49500,70785,107712,49500,,IMU->,-8,-78,2049,2050,
19989,1472,1287,1520,1525,49500,70785,107712,49500,,IMU->,-4,-78,2049,2050,
19989,1471,1269,1476,1515,49500,70785,107712,49500,,IMU->,-5,-81,2047,2048,
19989,1465,1260,1421,1520,49500,70785,107712,49500,,IMU->,-2,-82,2048,2049,
19958,1454,1254,1398,1502,49500,70785,107712,49500,,IMU->,-4,-80,2053,2054,
19989,1474,1224,1348,1511,49500,70785,107712,49500,,IMU->,-5,-79,2047,2048,
19989,1472,1234,1331,1519,49500,70785,107712,49500,,IMU->,-4,-79,2044,2045,
20355,1474,1227,1333,1515,49500,70785,107712,49500,,IMU->,-6,-78,2048,2049,
19989,1478,1233,1320,1526,49500,70785,107712,49500,,IMU->,-5,-80,2048,2049,
19989,1473,1228,1309,1511,49500,70785,107712,49500,,IMU->,-4,-82,2049,2050,
19989,1464,1218,1300,1509,49500,70785,107712,49500,,IMU->,-6,-82,2047,2048,
19989,1467,1224,1314,1520,49500,70785,107712,49500,,IMU->,-4,-82,2051,2052,
19989,1473,1221,1329,1514,49500,70785,107712,49500,,IMU->,-3,-80,2046,2047,
19989,1463,1216,1296,1517,49500,70785,107712,49500,,IMU->,-7,-84,2049,2050,
19989,1472,1227,1301,1523,49500,70785,107712,49500,,IMU->,-4,-82,2049,2050,
19958,1482,1227,1293,1519,49500,70785,107712,49500,,IMU->,-7,-82,2048,2049,
19989,1458,1222,1245,1514,49500,70785,107712,49500,,IMU->,-7,-83,2052,2053,
19989,1471,1205,1237,1515,49500,70785,107712,49500,,IMU->,-6,-79,2049,2050,
19989,1471,1196,1205,1521,49500,70785,107712,49500,,IMU->,-5,-79,2049,2050,
19989,1459,1190,1192,1494,49500,70785,107712,49500,,IMU->,-6,-79,2051,2052,
19989,1455,1187,1162,1498,49500,70785,107712,49500,,IMU->,-8,-78,2046,2047,
19989,1455,1183,1127,1499,49500,70785,107712,49500,,IMU->,-2,-79,2044,2045,
19989,1471,1168,1176,1521,49500,70785,107712,49500,,IMU->,-4,-81,2051,2052,
19989,1471,1211,1361,1520,49500,70785,107712,49500,,IMU->,-6,-79,2051,2052,
19989,1461,1339,1755,1515,49500,70785,107712,49500,,IMU->,-6,-80,2047,2048,
19989,1469,1460,2158,1524,49500,70785,107712,49500,,IMU->,-5,-84,2051,2052,
19989,1476,1552,2382,1524,49500,70785,107712,49500,,IMU->,-5,-85,2049,2050,
19989,1471,1579,2491,1523,49500,70785,107712,49500,,IMU->,-8,-81,2045,2046,
19958,1482,1614,2515,1536,49500,70785,107712,49500,,IMU->,-6,-79,2049,2050,
19989,1485,1591,2438,1517,49500,70785,107712,49500,,IMU->,-7,-79,2052,2053,
19989,1478,1541,2322,1521,49500,70785,107712,49500,,IMU->,-6,-84,2047,2048,
19989,1479,1515,2175,1531,49500,70785,107712,49500,,IMU->,-4,-82,2049,2050,
20355,1476,1467,2050,1498,49500,70785,107712,49500,,IMU->,-4,-78,2050,2051,
19958,1473,1428,1923,1511,49500,70785,107712,49500,,IMU->,-4,-77,2048,2049,
19989,1475,1388,1784,1522,49500,70785,107712,49500,,IMU->,-6,-79,2049,2050,
19958,1471,1331,1665,1519,49500,70785,107712,49500,,IMU->,-8,-82,2050,2051,
19958,1469,1329,1620,1519,49500,70785,107712,49500,,IMU->,-9,-84,2051,2052,
19989,1474,1328,1632,1513,49500,70785,107712,49500,,IMU->,-9,-81,2049,2050,
19958,1468,1343,1674,1525,49500,70785,107712,49500,,IMU->,-1,-79,2048,2049,
19989,1478,1364,1740,1509,49500,70785,107712,49500,,IMU->,-5,-81,2049,2050,
19989,1479,1385,1812,1517,49500,70785,107712,49500,,IMU->,-7,-82,2049,2050,
19989,1473,1420,1893,1530,49500,70785,107712,49500,,IMU->,-7,-80,2046,2047,
19989,1477,1434,1955,1523,49500,70785,107712,49500,,IMU->,-6,-80,2048,2049,
19989,1473,1434,1972,1519,49500,70785,107712,49500,,IMU->,-7,-82,2053,2054,
19958,1460,1438,1945,1491,49500,70785,107712,49500,,IMU->,-6,-79,2046,2047,
19989,1455,1428,1895,1499,49500,70785,107712,49500,,IMU->,-4,-83,2047,2048,
19989,1471,1400,1842,1520,49500,70785,107712,49500,,IMU->,-3,-85,2049,2050,
19989,1479,1373,1791,1517,49500,70785,107712,49500,,IMU->,-7,-80,2050,2051,
20324,1478,1376,1720,1527,49500,70785,107712,49500,,IMU->,-4,-79,2048,2049,
19958,1466,1352,1658,1511,49500,70785,107712,49500,,IMU->,-7,-85,2048,2049,
19958,1473,1335,1630,1517,49500,70785,107712,49500,,IMU->,-4,-79,2047,2048,
19989,1470,1327,1557,1517,49500,70785,107712,49500,,IMU->,-6,-81,2047,2048,
19958,1461,1301,1535,1509,49500,70785,107712,49500,,IMU->,-5,-83,2048,2049,
19989,1469,1309,1508,1527,49500,70785,107712,49500,,IMU->,-6,-79,2050,2051,
19989,1471,1311,1487,1513,49500,70785,107712,49500,,IMU->,-7,-79,2051,2052,
19989,1464,1295,1469,1515,49500,70785,107712,49500,,IMU->,-8,-77,2050,2051,
19958,1471,1300,1460,1500,49500,70785,107712,49500,,IMU->,-8,-81,2048,2049,
19989,1459,1287,1437,1493,49500,70785,107712,49500,,IMU->,-7,-83,2047,2048,
19989,1461,1271,1415,1522,49500,70785,107712,49500,,IMU->,-5,-80,2047,2048,
19989,1461,1276,1414,1513,49500,70785,107712,49500,,IMU->,-4,-81,2051,2052,
19989,1447,1262,1416,1511,49500,70785,107712,49500,,IMU->,-5,-80,2048,2049,
19989,1436,1288,1408,1526,49500,70785,107712,49500,,IMU->,0,-79,2047,2048,
19958,1450,1283,1402,1431,49500,70785,107712,49500,,IMU->,-7,-80,2049,2050,
20355,1451,1273,1377,1519,49500,70785,107712,49500,,IMU->,-7,-81,2053,2054,
19958,1474,1281,1374,1513,49500,70785,107712,49500,,IMU->,-2,-80,2051,2052,
19958,1470,1084,1355,1512,49500,70785,107712,49500,,IMU->,-3,-80,2052,2053,
19958,1448,1266,1324,1524,49500,70785,107712,49500,,IMU->,-5,-84,2050,2051,
19989,1464,1252,1297,1494,49500,70785,107712,49500,,IMU->,-7,-81,2044,2045,
19989,1452,1239,1250,1516,49500,70785,107712,49500,,IMU->,-5,-80,2050,2051,
19989,1458,1234,1242,1509,49500,70785,107712,49500,,IMU->,-8,-78,2053,2054,
19958,1473,1239,1228,1510,49500,70785,107712,49500,,IMU->,-4,-77,2053,2054,
19989,1464,1248,1243,1517,49500,70785,107712,49500,,IMU->,-2,-80,2049,2050,
19989,1469,1278,1413,1518,49500,70785,107712,49500,,IMU->,-9,-81,2046,2047,
19958,1476,1368,1710,1528,49500,70785,107712,49500,,IMU->,-4,-77,2051,2052,
19989,1470,1494,2119,1517,49500,70785,107712,49500,,IMU->,-4,-81,2050,2051,
19989,1470,1579,2376,1522,49500,70785,107712,49500,,IMU->,-6,-83,2047,2048,
19989,1469,1626,2478,1528,49500,70785,107712,49500,,IMU->,-3,-79,2048,2049,
19958,1479,1631,2492,1521,49500,70785,107712,49500,,IMU->,-3,-80,2050,2051,
20324,1476,1610,2426,1524,49500,70785,107712,49500,,IMU->,-5,-83,2052,2053,
19989,1477,1596,2327,1519,49500,70785,107712,49500,,IMU->,-8,-80,2047,2048,
19958,1479,1554,2183,1523,49500,70785,107712,49500,,IMU->,-6,-80,2048,2049,
19989,1467,1506,2001,1524,49500,70785,107712,49500,,IMU->,-4,-80,2050,2051,
19989,1471,1444,1861,1520,49500,70785,107712,49500,,IMU->,-6,-79,2051,2052,
19989,1472,1408,1745,1526,49500,70785,107712,49500,,IMU->,-6,-81,2049,2050,
19989,1473,1389,1629,1515,49500,70785,107712,49500,,IMU->,-7,-80,2048,2049,
19989,1471,1357,1581,1514,49500,70785,107712,49500,,IMU->,-2,-80,2049,2050,
19958,1473,1366,1592,1522,49500,70785,107712,49500,,IMU->,-6,-80,2049,2050,
19989,1474,1376,1652,1516,49500,70785,107712,49500,,IMU->,-4,-80,2046,2047,
19989,1469,1410,1744,1523,49500,70785,107712,49500,,IMU->,-4,-82,2055,2056,
19989,1468,1442,1856,1520,49500,70785,107712,49500,,IMU->,-6,-80,2046,2047,
19989,1473,1463,1945,1516,49500,70785,107712,49500,,IMU->,-2,-84,2050,2051,
19989,1469,1490,1990,1526,49500,70785,107712,49500,,IMU->,-6,-83,2047,2048,
19958,1472,1507,2033,1523,49500,70785,107712,49500,,IMU->,-4,-81,2044,2045,
19989,1467,1497,2011,1522,49500,70785,107712,49500,,IMU->,-9,-78,2048,2049,
19989,1470,1492,1963,1515,49500,70785,107712,49500,,IMU->,-7,-76,2050,2051,
19989,1474,1482,1913,1525,49500,70785,107712,49500,,IMU->,-9,-78,2050,2051,
19989,1475,1471,1870,1529,49500,70785,107712,49500,,IMU->,-8,-84,2049,2050,
20294,1472,1452,1817,1517,49500,70785,107712,49500,,IMU->,-6,-81,2050,2051,
19958,1476,1427,1738,1521,49500,70785,107712,49500,,IMU->,-6,-79,2053,2054,
19989,1470,1414,1674,1524,49500,70785,107712,49500,,IMU->,-10,-79,2051,2052,
19958,1471,1399,1638,1514,49500,70785,107712,49500,,IMU->,-3,-78,2050,2051,
19989,1465,1391,1588,1513,49500,70785,107712,49500,,IMU->,-5,-78,2045,2046,
19989,1461,1368,1564,1513,49500,70785,107712,49500,,IMU->,-6,-81,2046,2047,
19989,1468,1363,1542,1524,49500,70785,107712,49500,,IMU->,-6,-81,2050,2051,
19989,1464,1375,1517,1516,49500,70785,107712,49500,,IMU->,-8,-81,2050,2051,
19989,1474,1372,1514,1515,49500,70785,107712,49500,,IMU->,-4,-81,2047,2048,
19958,1474,1363,1491,1521,49500,70785,107712,49500,,IMU->,-8,-81,2046,2047,
19989,1465,1345,1484,1514,49500,70785,107712,49500,,IMU->,-5,-80,2052,2053,
19989,1467,1352,1474,1522,49500,70785,107712,49500,,IMU->,-6,-82,2052,2053,
19989,1456,1353,1463,1511,49500,70785,107712,49500,,IMU->,-3,-78,2049,2050,
19989,1460,1335,1454,1513,49500,70785,107712,49500,,IMU->,-2,-81,2048,2049,
19989,1468,1344,1425,1520,49500,70785,107712,49500,,IMU->,-5,-80,2048,2049,
19989,1478,1342,1423,1516,49500,70785,107712,49500,,IMU->,-7,-80,2047,2048,
19989,1476,1338,1405,1524,49500,70785,107712,49500,,IMU->,-6,-78,2054,2055,
20355,1456,1334,1375,1506,49500,70785,107712,49500,,IMU->,-5,-78,2050,2051,
19927,1466,1324,1398,1512,49500,70785,107712,49500,,IMU->,-7,-77,2047,2048,
19958,1472,1377,1556,1522,49500,70785,107712,49500,,IMU->,-8,-81,2050,2051,
19989,1462,1449,1830,1517,49500,70785,107712,49500,,IMU->,-9,-80,2048,2049,
19958,1471,1556,2158,1522,49500,70785,107712,49500,,IMU->,-8,-80,2046,2047,
19989,1470,1630,2346,1519,49500,70785,107712,49500,,IMU->,-6,-78,2051,2052,
19989,1469,1647,2406,1514,49500,70785,107712,49500,,IMU->,-6,-80,2049,2050,
19989,1475,1652,2387,1520,49500,70785,107712,49500,,IMU->,-6,-81,2050,2051,
19958,1466,1642,2331,1520,49500,70587,107217,49500,,IMU->,-8,-83,2052,2053,
19989,1469,1459,1773,1520,49500,70587,107217,49500,,IMU->,-4,-83,2049,2050,
19989,1470,1427,1614,1525,49500,70587,107217,49500,,IMU->,-6,-83,2045,2046,
19989,1475,1368,1457,1518,49500,70587,107217,49500,,IMU->,-7,-78,2048,2049,
19989,1466,1321,1300,1522,49500,70587,107217,49500,,IMU->,-3,-75,2050,2051,
19989,1461,1288,1200,1515,49500,70587,107217,49500,,IMU->,-5,-78,2049,2050,
19958,1475,1260,1104,1517,49500,70587,107217,49500,,IMU->,-4,-80,2048,2049,
20355,1464,1252,1067,1515,49500,70587,107217,49500,,IMU->,-6,-81,2050,2051,
19989,1475,1254,1100,1518,49500,70587,107217,49500,,IMU->,-4,-82,2046,2047,
19927,1480,1288,1172,1527,49500,70587,107217,49500,,IMU->,-6,-83,2053,2054,
19958,1472,1310,1256,1516,49500,70587,107217,49500,,IMU->,-9,-81,2052,2053,
19989,1463,1324,1342,1519,49500,70587,107217,49500,,IMU->,-7,-81,2045,2046,
19989,1463,1357,1413,1514,49500,70587,107217,49500,,IMU->,-7,-80,2050,2051,
19989,1469,1366,1476,1514,49500,70587,107217,49500,,IMU->,-4,-84,2049,2050,
19958,1470,1384,1492,1520,49500,70587,107217,49500,,IMU->,-6,-79,2047,2048,
19989,1473,1374,1458,1516,49500,70587,107217,49500,,IMU->,-6,-80,2049,2050,
19989,1478,1369,1416,1527,49500,70587,107217,49500,,IMU->,-4,-83,2048,2049,
19989,1473,1360,1353,1512,49500,70587,107217,49500,,IMU->,-5,-83,2050,2051,
19989,1461,1337,1313,1506,49500,70587,107217,49500,,IMU->,-5,-77,2051,2052,
19989,1463,1321,1236,1518,49500,70587,107217,49500,,IMU->,-6,-81,2049,2050,
19958,1467,1293,1167,1508,49500,70587,107217,49500,,IMU->,-3,-81,2049,2050,
19989,1470,1265,1119,1520,49500,70587,107217,49500,,IMU->,-7,-78,2052,2053,
19989,1474,1277,1091,1526,49500,70587,107217,49500,,IMU->,-3,-80,2050,2051,
19989,1474,1261,1038,1511,49500,70587,107217,49500,,IMU->,-5,-80,2050,2051,
20355,1467,1246,989,1522,49500,70587,107217,49500,,IMU->,-5,-81,2051,2052,
19989,1467,1229,972,1510,49500,70587,107217,49500,,IMU->,-4,-79,2049,2050,
19989,1466,1222,952,1514,49500,70587,107217,49500,,IMU->,-3,-82,2051,2052,
19927,1464,1231,953,1514,49500,70587,107217,49500,,IMU->,-3,-79,2047,2048,
19958,1469,1225,932,1516,49500,70587,107217,49500,,IMU->,-5,-82,2051,2052,
19989,1471,1220,906,1526,49500,70587,107217,49500,,IMU->,-6,-83,2048,2049,
19958,1472,1217,906,1511,49500,70587,107217,49500,,IMU->,-8,-81,2050,2051,
19989,1461,1207,895,1504,49500,70587,107217,49500,,IMU->,-6,-81,2048,2049,
19989,1455,1219,885,1515,49500,70587,107217,49500,,IMU->,-7,-78,2051,2052,
19989,1473,1205,860,1506,49500,70587,107217,49500,,IMU->,-3,-80,2053,2054,
19989,1465,1195,822,1513,49500,70587,107217,49500,,IMU->,-7,-83,2052,2053,
19989,1462,1186,821,1520,49500,70587,107217,49500,,IMU->,-4,-81,2047,2048,
19958,1468,1191,812,1520,49500,70587,107217,49500,,IMU->,-5,-82,2047,2048,
19989,1452,1185,812,1508,49500,70587,107217,49500,,IMU->,-4,-82,2048,2049,
19989,1468,1202,952,1510,49500,70587,107217,49500,,IMU->,-8,-81,2044,2045,
19989,1464,1302,1256,1518,49500,70587,107217,49500,,IMU->,-9,-81,2049,2050,
20355,1467,1424,1671,1515,49500,70587,107217,49500,,IMU->,-5,-81,2051,2052,
19958,1481,1523,1964,1529,49500,70587,107217,49500,,IMU->,-6,-78,2046,2047,
19989,1479,1583,2094,1528,49500,70587,107217,49500,,IMU->,-7,-76,2046,2047,
19927,1474,1593,2127,1521,49500,70587,107217,49500,,IMU->,-3,-81,2047,2048,
19958,1476,1596,2090,1526,49500,70587,107217,49500,,IMU->,-8,-82,2050,2051,
19989,1476,1564,1999,1511,49500,70587,107217,49500,,IMU->,-3,-81,2048,2049,
19989,1471,1524,1873,1521,49500,70587,107217,49500,,IMU->,-7,-78,2046,2047,
19989,1467,1500,1750,1521,49500,70587,107217,49500,,IMU->,-2,-80,2051,2052,
19989,1472,1454,1623,1516,49500,70587,107217,49500,,IMU->,-3,-81,2046,2047,
19989,1475,1424,1492,1538,49500,70587,107217,49500,,IMU->,-6,-77,2053,2054,
19958,1471,1389,1383,1522,49500,70587,107217,49500,,IMU->,-8,-82,2049,2050,
19989,1466,1347,1317,1514,49500,70587,107217,49500,,IMU->,-6,-81,2052,2053,
19989,1459,1354,1309,1515,49500,70587,107217,49500,,IMU->,-5,-78,2048,2049,
19989,1457,1359,1323,1506,49500,70587,107217,49500,,IMU->,-4,-80,2051,2052,
19989,1453,1366,1364,1523,49500,70587,107217,49500,,IMU->,-1,-81,2049,2050,
19989,1481,1399,1446,1528,49500,70587,107217,49500,,IMU->,-9,-80,2046,2047,
20324,1484,1424,1525,1522,49500,70587,107217,49500,,IMU->,-4,-82,2048,2049,
19958,1470,1449,1609,1521,49500,70587,107217,49500,,IMU->,-6,-81,2050,2051,
19989,1477,1465,1650,1520,49500,70587,107217,49500,,IMU->,-8,-83,2052,2053,
19927,1469,1461,1624,1517,49500,70587,107217,49500,,IMU->,-5,-81,2049,2050,
19989,1471,1456,1605,1521,49500,70587,107217,49500,,IMU->,-8,-78,2048,2049,
19989,1476,1439,1550,1521,49500,70587,107217,49500,,IMU->,-7,-82,2051,2052,
19989,1467,1429,1484,1515,49500,70587,107217,49500,,IMU->,-8,-80,2050,2051,
19989,1472,1414,1440,1523,49500,70587,107217,49500,,IMU->,-6,-78,2047,2048,
19958,1474,1410,1409,1523,49500,70587,107217,49500,,IMU->,-8,-80,2048,2049,
19989,1464,1401,1395,1511,49500,70587,107217,49500,,IMU->,-4,-83,2048,2049,
19989,1469,1398,1392,1522,49500,70587,107217,49500,,IMU->,-6,-83,2050,2051,
19989,1465,1391,1343,1515,49500,70587,107217,49500,,IMU->,-4,-80,2051,2052,
19989,1460,1364,1304,1516,49500,70587,107217,49500,,IMU->,-3,-81,2045,2046,
19989,1469,1365,1280,1518,49500,70587,107217,49500,,IMU->,-9,-79,2051,2052,
19989,1464,1359,1257,1512,49500,70587,107217,49500,,IMU->,-9,-81,2049,2050,
19989,1458,1349,1267,1526,49500,70587,107217,49500,,IMU->,-8,-84,2050,2051,
20324,1468,1350,1240,1512,49500,70587,107217,49500,,IMU->,-8,-80,2051,2052,
19958,1462,1328,1204,1501,49500,70587,107217,49500,,IMU->,-8,-81,2045,2046,
19989,1466,1324,1179,1525,49500,70587,107217,49500,,IMU->,-4,-74,2049,2050,
19989,1474,1318,1180,1516,49500,70587,107217,49500,,IMU->,-7,-75,2052,2053,
19989,1473,1296,1162,1513,49500,70587,107217,49500,,IMU->,-5,-81,2049,2050,
19927,1463,1281,1119,1522,49500,70587,107217,49500,,IMU->,-5,-86,2048,2049,
19958,1461,1264,1085,1508,49500,70587,107217,49500,,IMU->,-4,-82,2048,2049,
19989,1465,1241,1047,1515,49500,70587,107217,49500,,IMU->,-10,-81,2047,2048,
19989,1470,1224,1004,1518,49500,70587,107217,49500,,IMU->,-5,-80,2045,2046,
19989,1471,1187,938,1518,49500,70587,107217,49500,,IMU->,-7,-84,2048,2049,
19989,1462,1141,803,1516,49500,70587,107217,49500,,IMU->,-4,-82,2050,2051,
19989,1466,1104,700,1509,49500,70587,107217,49500,,IMU->,-3,-81,2046,2047,
19989,1467,1083,636,1517,49500,70587,107217,49500,,IMU->,-6,-82,2052,2053,
19989,1459,1091,720,1505,49500,70587,107217,49500,,IMU->,-6,-80,2047,2048,
19958,1462,1148,938,1519,49500,70587,107217,49500,,IMU->,-5,-82,2050,2051,
19989,1469,1238,1188,1519,49500,70587,107217,49500,,IMU->,-7,-82,2048,2049,
19989,1472,1312,1431,1518,49500,70587,107217,49500,,IMU->,-10,-79,2050,2051,
20324,1476,1355,1503,1524,49500,70587,107217,49500,,IMU->,-7,-80,2045,2046,
19989,1473,1347,1444,1520,49500,70587,107217,49500,,IMU->,-6,-79,2045,2046,
19958,1480,1307,1301,1524,49500,70587,107217,49500,,IMU->,-7,-80,2052,2053,
19927,1468,1254,1074,1516,49500,70587,107217,49500,,IMU->,-5,-86,2048,2049,
19989,1466,1184,860,1511,49500,70587,107217,49500,,IMU->,-8,-80,2048,2049,
19989,1470,1128,632,1519,49500,70587,107217,49500,,IMU->,-8,-81,2048,2049,
19989,1462,1060,447,1506,49500,70587,107217,49500,,IMU->,-6,-82,2048,2049,
19989,1465,1004,289,1513,49500,70587,107217,49500,,IMU->,-2,-80,2052,2053,
19989,1462,975,145,1512,49500,70587,107217,49500,,IMU->,-7,-81,2051,2052,
19989,1460,921,30,1504,49500,70587,107217,49500,,IMU->,-5,-85,2048,2049,
19989,1467,905,0,1520,49500,70587,107217,49500,,IMU->,-10,-78,2050,2051,
19958,1465,901,0,1510,49500,70587,107217,49500,,IMU->,-7,-81,2049,2050,
19989,1460,898,1,1512,49500,70587,107217,49500,,IMU->,-6,-78,2051,2052,
19989,1453,932,24,1513,49500,70587,107217,49500,,IMU->,-3,-83,2051,2052,
19989,1456,943,49,1500,49500,70587,107217,49500,,IMU->,-7,-80,2050,2051,
19989,1467,952,43,1521,49500,70587,107217,49500,,IMU->,-7,-79,2051,2052,
19989,1475,955,32,1516,49500,70587,107217,49500,,IMU->,-9,-82,2052,2053,
20355,1473,942,21,1514,49500,70587,107217,49500,,IMU->,-6,-82,2046,2047,
19989,1466,946,1,1515,49500,70587,107217,49500,,IMU->,-8,-80,2045,2046,
19989,1459,920,1,1506,49500,70587,107217,49500,,IMU->,-4,-82,2050,2051,
19927,1461,902,2,1518,49500,70587,107217,49500,,IMU->,-4,-81,2051,2052,
19989,1465,885,0,1509,49500,70587,107217,49500,,IMU->,-10,-81,2048,2049,
19927,1464,855,0,1513,49500,70587,107217,49500,,IMU->,-7,-81,2053,2054,
19989,1463,845,0,1523,49500,70587,107217,49500,,IMU->,-7,-82,2049,2050,
19989,1472,835,0,1508,49500,70587,107217,49500,,IMU->,-2,-80,2053,2054,
19958,1468,817,1,1508,49500,70587,107217,49500,,IMU->,-5,-82,2047,2048,
19989,1458,781,1,1509,49500,70587,107217,49500,,IMU->,-3,-82,2046,2047,
19989,1461,748,0,1512,49500,70587,107217,49500,,IMU->,-2,-81,2049,2050,
19989,1453,733,0,1510,49500,70587,107217,49500,,IMU->,-9,-85,2046,2047,
19989,1452,699,1,1505,49500,70587,107217,49500,,IMU->,-6,-80,2048,2049,
19989,1455,672,0,1521,49500,70587,107217,49500,,IMU->,-6,-72,2050,2051,
19989,1475,648,0,1515,49500,70587,107217,49500,,IMU->,-3,-74,2047,2048,
19989,1475,620,0,1512,49500,70587,107217,49500,,IMU->,-7,-74,2052,2053,
20324,1462,610,1,1516,49500,70587,107217,49500,,IMU->,-4,-86,2048,2049,
19958,1458,588,0,1498,49500,70587,107217,49500,,IMU->,-6,-71,2051,2052,
19989,1464,562,0,1509,49500,70587,107217,49500,,IMU->,18,-33,2044,2044,
19958,1467,539,0,1519,49500,70587,107217,49500,,IMU->,-12,-94,2050,2052,
19927,1474,508,0,1516,49500,70587,107217,49500,,IMU->,6,-62,2050,2050,
19958,1465,499,0,1514,49500,70587,107217,49500,,IMU->,-1,-62,2043,2043,
19989,1461,465,0,1508,49500,70587,107217,49500,,IMU->,0,-60,2052,2052,
19958,1462,455,0,1519,49500,70587,107217,49500,,IMU->,-5,-74,2047,2048,
19958,1456,444,1,1518,49500,70587,107217,49500,,IMU->,-4,-80,2046,2047,
19989,1470,416,0,1516,49500,70587,107217,49500,,IMU->,-7,-60,2051,2051,
20324,1472,442,0,1528,49500,70587,107217,49500,,IMU->,5,-61,2053,2053,
19958,1478,507,0,1514,49500,70587,107217,49500,,IMU->,-12,-86,2050,2051,
19989,1466,640,0,1519,49500,70587,107217,49500,,IMU->,0,-100,2053,2055,
19989,1464,765,0,1521,49500,70587,107217,49500,,IMU->,-9,-77,2048,2049,
19989,1478,819,0,1519,49500,70587,107217,49500,,IMU->,-10,-97,2046,2048,
19989,1475,842,0,1530,49500,70587,107217,49500,,IMU->,-6,-87,2049,2050,
19989,1475,847,0,1519,49500,70587,107217,49500,,IMU->,-9,-104,2050,2052,
19927,1477,834,0,1524,49500,70587,107217,49500,,IMU->,-12,-115,2053,2056,
19958,1473,839,0,1519,49500,70587,107217,49500,,IMU->,-10,-81,2043,2044,
19989,1467,833,0,1517,49500,70587,107217,49500,,IMU->,-1,-65,2053,2054,
19958,1452,790,0,1508,49500,70587,107217,49500,,IMU->,-12,-78,2045,2046,
19989,1450,745,0,1504,49500,70587,107217,49500,,IMU->,-4,-67,2045,2046,
19989,1469,704,6,1510,49500,70587,107217,49500,,IMU->,-5,-36,2044,2044,
19989,1472,681,0,1515,49500,70587,107217,49500,,IMU->,1,-26,2045,2045,
20324,1481,663,0,1519,49500,70587,107217,49500,,IMU->,0,-29,2049,2049,
19958,1465,660,0,1511,49500,70587,107217,49500,,IMU->,1,-48,2045,2045,
19927,1460,675,0,1507,49500,70587,107217,49500,,IMU->,-54,-178,2057,2065,
19989,1458,702,1,1506,49500,70587,107217,49500,,IMU->,-54,-167,2053,2060,
19927,1451,705,0,1495,49500,70620,107910,49500,,IMU->,-79,-204,2052,2063,
19958,1461,713,0,1513,49500,70620,107910,49500,,IMU->,-31,-103,2054,2056,
19958,1464,732,0,1520,49500,70620,107910,49500,,IMU->,-27,-96,2055,2057,
19989,1455,707,0,1511,49500,70620,107910,49500,,IMU->,-125,-192,2061,2073,
20324,1473,671,0,1515,49500,70620,107910,49500,,IMU->,-43,-87,2069,2071,
19958,1465,646,0,1507,49500,70620,107910,49500,,IMU->,-51,-49,2057,2058,
19989,1461,593,0,1503,49500,70620,107910,49500,,IMU->,20,27,2039,2039,
19958,1455,556,0,1510,49500,70620,107910,49500,,IMU->,0,-21,2051,2051,
19958,1457,500,0,1497,49500,70620,107910,49500,,IMU->,56,92,2041,2043,
19989,1462,466,0,1514,49500,70620,107910,49500,,IMU->,0,18,2027,2027,
19927,1462,446,0,1511,49500,70620,107910,49500,,IMU->,31,49,2057,2057,
19989,1461,421,0,1512,49500,70620,107910,49500,,IMU->,30,39,2055,2055,
19989,1460,410,0,1511,49500,70620,107910,49500,,IMU->,38,42,2043,2043,
19989,1454,403,0,1504,49500,70620,107910,49500,,IMU->,32,14,2048,2048,
19989,1460,425,0,1508,49500,70620,107910,49500,,IMU->,21,0,2048,2048,
19958,1462,455,0,1512,49500,70620,107910,49500,,IMU->,16,-3,2047,2047,
20324,1463,463,0,1506,49500,70620,107910,49500,,IMU->,-12,-20,2049,2049,
19989,1455,456,0,1510,49500,70620,107910,49500,,IMU->,6,-45,2053,2053,
19958,1463,480,0,1501,49500,70620,107910,49500,,IMU->,-18,-43,2048,2048,
19989,1459,497,0,1499,49500,70620,107910,49500,,IMU->,0,-48,2048,2048,
19958,1450,508,0,1505,49500,70620,107910,49500,,IMU->,7,-41,2048,2048,
19958,1465,524,0,1513,49500,70620,107910,49500,,IMU->,14,-55,2047,2047,
19989,1462,539,0,1510,49500,70620,107910,49500,,IMU->,24,-69,2047,2048,
19927,1465,574,0,1507,49500,70620,107910,49500,,IMU->,4,-62,2052,2052,
19958,1462,602,0,1510,49500,70620,107910,49500,,IMU->,24,-65,2051,2052,
19989,1448,666,0,1503,49500,70620,107910,49500,,IMU->,41,-68,2045,2046,
19958,1450,715,0,1506,49500,70620,107910,49500,,IMU->,49,-65,2048,2049,
19989,1461,764,0,1516,49500,70620,107910,49500,,IMU->,25,-77,2047,2048,
20355,1457,789,1,1503,49500,70620,107910,49500,,IMU->,31,-85,2049,2050,
19989,1471,807,0,1517,49500,70620,107910,49500,,IMU->,32,-88,2050,2052,
19989,1467,782,1,1508,49500,70620,107910,49500,,IMU->,31,-100,2052,2054,
19958,1461,732,4,1512,49500,70620,107910,49500,,IMU->,23,-100,2051,2053,
19989,1459,697,0,1509,49500,70620,107910,49500,,IMU->,3,-104,2052,2054,
19958,1450,636,0,1496,49500,70620,107910,49500,,IMU->,11,-75,2048,2049,
19989,1457,580,0,1510,49500,70620,107910,49500,,IMU->,17,-54,2054,2054,
19958,1466,532,0,1508,49500,70620,107910,49500,,IMU->,3,-66,2053,2054,
19927,1455,461,0,1503,49500,70620,107910,49500,,IMU->,-2,-55,2051,2051,
19989,1457,419,0,1516,49500,70620,107910,49500,,IMU->,-6,-42,2045,2045,
19989,1456,400,0,1493,49500,70620,107910,49500,,IMU->,-19,-84,2055,2056,
19989,1445,370,0,1499,49500,70620,107910,49500,,IMU->,6,-74,2047,2048,
19958,1449,378,1,1506,49500,70620,107910,49500,,IMU->,8,-66,2047,2048,
20324,1459,382,0,1500,49500,70620,107910,49500,,IMU->,1,-81,2051,2052,
19958,1452,387,0,1505,49500,70620,107910,49500,,IMU->,-6,-63,2054,2054,
19989,1453,387,0,1503,49500,70620,107910,49500,,IMU->,-12,-98,2056,2058,
19958,1465,374,0,1504,49500,70620,107910,49500,,IMU->,-7,-85,2053,2054,
19927,1453,357,1,1502,49500,70620,107910,49500,,IMU->,-15,-92,2050,2052,
19989,1454,327,0,1501,49500,70620,107910,49500,,IMU->,-6,-106,2044,2046,
19927,1450,304,0,1510,49500,70620,107910,49500,,IMU->,-6,-121,2050,2053,
19989,1443,279,0,1497,49500,70620,107910,49500,,IMU->,0,-108,2047,2049,
19989,1458,239,0,1508,49500,70620,107910,49500,,IMU->,-10,-121,2050,2053,
19989,1428,189,0,1497,49500,70620,107910,49500,,IMU->,-8,-112,2049,2052,
19989,1446,126,0,1491,49500,70620,107910,49500,,IMU->,-5,-103,2053,2055,
19958,1451,75,0,1501,49500,70620,107910,49500,,IMU->,-8,-84,2050,2051,
20294,1444,44,0,1491,49500,70620,107910,49500,,IMU->,-3,-75,2051,2052,
19927,1449,34,0,1500,49500,70620,107910,49500,,IMU->,-3,-69,2049,2050,
19958,1450,14,0,1494,49500,70620,107910,49500,,IMU->,-5,-73,2050,2051,
19927,1440,2,0,1498,49500,70620,107910,49500,,IMU->,-1,-72,2049,2050,
19958,1443,10,0,1505,49500,70620,107910,49500,,IMU->,-1,-70,2051,2052,
19958,1437,8,0,1477,49500,70620,107910,49500,,IMU->,-5,-70,2049,2050,
20294,1444,4,0,1492,49500,70620,107910,49500,,IMU->,-2,-73,2046,2047,
19958,1452,17,0,1503,49500,70620,107910,49500,,IMU->,-2,-77,2052,2053,
19927,1449,5,0,1480,49500,70620,107910,49500,,IMU->,-5,-74,2052,2053,
19897,1442,8,0,1501,49500,70620,107910,49500,,IMU->,1,-73,2047,2048,
19927,1443,16,0,1490,49500,70620,107910,49500,,IMU->,-1,-72,2052,2053,
20294,1447,5,0,1491,49500,70620,107910,49500,,IMU->,-1,-69,2047,2048,
19927,1445,28,0,1498,49500,70620,107910,49500,,IMU->,0,-69,2050,2051,
19958,1455,109,0,1485,49500,70620,107910,49500,,IMU->,-6,-75,2048,2049,
19989,1438,280,0,1495,49500,70620,107910,49500,,IMU->,-4,-71,2044,2045,
19989,1449,430,0,1498,49500,70620,107910,49500,,IMU->,-4,-75,2048,2049,
19989,1452,528,0,1491,49500,70620,107910,49500,,IMU->,0,-72,2049,2050,
19927,1446,584,0,1508,49500,70620,107910,49500,,IMU->,0,-70,2049,2050,
19958,1457,605,0,1499,49500,70620,107910,49500,,IMU->,-2,-72,2050,2051,
19989,1454,619,0,1500,49500,70620,107910,49500,,IMU->,-4,-75,2048,2049,
20324,1454,628,0,1498,49500,70620,107910,49500,,IMU->,0,-72,2054,2055,
19958,1456,624,0,1497,49500,70620,107910,49500,,IMU->,-2,-71,2052,2053,
19989,1443,618,0,1502,49500,70620,107910,49500,,IMU->,0,-74,2051,2052,
19958,1460,597,0,1501,49500,70620,107910,49500,,IMU->,-1,-72,2046,2047,
19958,1457,588,0,1507,49500,70620,107910,49500,,IMU->,-3,-72,2048,2049,
19989,1441,571,0,1496,49500,70620,107910,49500,,IMU->,-5,-68,2052,2053,
19958,1459,569,0,1501,49500,70620,107910,49500,,IMU->,-3,-68,2049,2050,
19927,1455,580,0,1499,49500,70620,107910,49500,,IMU->,-3,-74,2050,2051,
19989,1449,583,0,1495,49500,70620,107910,49500,,IMU->,0,-71,2050,2051,
19958,1455,617,0,1504,49500,70620,107910,49500,,IMU->,0,-69,2047,2048,
20324,1448,643,2,1491,49500,70620,107910,49500,,IMU->,1,-74,2051,2052,
19958,1455,659,0,1500,49500,70620,107910,49500,,IMU->,0,-72,2051,2052,
19958,1458,659,0,1505,49500,70620,107910,49500,,IMU->,-1,-75,2052,2053,
19989,1460,657,0,1500,49500,70620,107910,49500,,IMU->,0,-70,2052,2053,
19958,1458,666,0,1507,49500,70620,107910,49500,,IMU->,-4,-73,2049,2050,
19989,1454,655,2,1495,49500,70620,107910,49500,,IMU->,-2,-75,2049,2050,
19958,1450,633,0,1496,49500,70620,107910,49500,,IMU->,-3,-75,2049,2050,
19989,1443,613,0,1500,49500,70620,107910,49500,,IMU->,-2,-70,2050,2051,
19927,1456,591,0,1496,49500,70620,107910,49500,,IMU->,-2,-69,2049,2050,
19958,1445,579,0,1504,49500,70620,107910,49500,,IMU->,0,-71,2051,2052,
20324,1453,570,0,1498,49500,70620,107910,49500,,IMU->,0,-71,2049,2050,
19958,1453,546,0,1497,49500,70620,107910,49500,,IMU->,-1,-68,2049,2050,
19989,1451,554,0,1508,49500,70620,107910,49500,,IMU->,-3,-71,2047,2048,
19989,1458,545,0,1499,49500,70620,107910,49500,,IMU->,-3,-74,2047,2048,
19989,1449,526,0,1500,49500,70620,107910,49500,,IMU->,-2,-74,2052,2053,
19989,1452,514,1,1498,49500,70620,107910,49500,,IMU->,-3,-72,2047,2048,
19989,1463,505,0,1507,49500,70620,107910,49500,,IMU->,-5,-73,2048,2049,
19989,1453,503,0,1504,49500,70620,107910,49500,,IMU->,-5,-69,2051,2052,
19958,1453,480,0,1502,49500,70620,107910,49500,,IMU->,-2,-71,2047,2048,
19958,1459,485,0,1506,49500,70620,107910,49500,,IMU->,-3,-72,2049,2050,
19989,1444,479,0,1492,49500,70620,107910,49500,,IMU->,0,-74,2046,2047,
19927,1451,462,0,1501,49500,70620,107910,49500,,IMU->,0,-72,2049,2050,
19958,1443,459,0,1504,49500,70620,107910,49500,,IMU->,-2,-71,2053,2054,
20355,1462,439,0,1504,49500,70620,107910,49500,,IMU->,-1,-72,2047,2048,
19989,1455,437,0,1504,49500,70620,107910,49500,,IMU->,0,-71,2050,2051,
19958,1449,455,0,1496,49500,70620,107910,49500,,IMU->,0,-71,2051,2052,
19958,1456,470,0,1497,49500,70620,107910,49500,,IMU->,0,-74,2047,2048,
19958,1451,535,0,1501,49500,70620,107910,49500,,IMU->,0,-76,2051,2052,
19958,1453,622,0,1509,49500,70620,107910,49500,,IMU->,-4,-73,2047,2048,
19989,1455,728,0,1511,49500,70620,107910,49500,,IMU->,-8,-70,2046,2047,
19958,1457,815,0,1497,49500,70620,107910,49500,,IMU->,-2,-70,2052,2053,
19927,1458,878,0,1510,49500,70620,107910,49500,,IMU->,-5,-69,2046,2047,
19989,1468,907,1,1514,49500,70620,107910,49500,,IMU->,-2,-72,2048,2049,
19989,1462,884,1,1500,49500,70620,107910,49500,,IMU->,-3,-72,2050,2051,
19989,1459,864,0,1512,49500,70620,107910,49500,,IMU->,-3,-73,2048,2049,
20355,1462,850,1,1507,49500,70620,107910,49500,,IMU->,0,-71,2051,2052,
19958,1469,812,0,1508,49500,70620,107910,49500,,IMU->,-3,-71,2048,2049,
19989,1459,802,0,1511,49500,70620,107910,49500,,IMU->,-3,-75,2052,2053,
19958,1461,769,1,1502,49500,70620,107910,49500,,IMU->,-5,-73,2050,2051,
19958,1452,756,0,1506,49500,70620,107910,49500,,IMU->,-1,-68,2047,2048,
19989,1447,760,0,1496,49500,70620,107910,49500,,IMU->,-1,-71,2050,2051,
19958,1460,756,0,1501,49500,70620,107910,49500,,IMU->,-2,-70,2048,2049,
19989,1457,777,0,1514,49500,70620,107910,49500,,IMU->,-1,-73,2050,2051,
19958,1461,780,0,1508,49500,70620,107910,49500,,IMU->,-2,-72,2044,2045,
19927,1456,801,0,1511,49500,70620,107910,49500,,IMU->,-4,-70,2047,2048,
20324,1467,820,0,1500,49500,70620,107910,49500,,IMU->,0,-70,2051,2052,
19958,1459,820,0,1504,49500,70620,107910,49500,,IMU->,-2,-71,2048,2049,
19989,1456,819,0,1509,49500,70620,107910,49500,,IMU->,-1,-71,2049,2050,
19958,1460,807,0,1507,49500,70620,107910,49500,,IMU->,-2,-73,2049,2050,
19989,1461,809,0,1514,49500,70620,107910,49500,,IMU->,0,-73,2047,2048,
19958,1462,800,0,1499,49500,70620,107910,49500,,IMU->,-3,-72,2048,2049,
19989,1464,779,0,1506,49500,70620,107910,49500,,IMU->,-3,-71,2047,2048,
19989,1458,771,1,1502,49500,70620,107910,49500,,IMU->,-4,-71,2049,2050,
19927,1457,753,0,1501,49500,70620,107910,49500,,IMU->,-5,-69,2051,2052,
19989,1459,759,0,1510,49500,70620,107910,49500,,IMU->,-2,-74,2054,2055,
19927,1452,762,0,1505,49500,70620,107910,49500,,IMU->,-4,-72,2048,2049,
20324,1461,742,0,1503,49500,70620,107910,49500,,IMU->,-1,-74,2048,2049,
19958,1460,747,0,1508,49500,70620,107910,49500,,IMU->,-4,-75,2050,2051,
19989,1460,740,0,1501,49500,70620,107910,49500,,IMU->,-6,-75,2044,2045,
19958,1458,749,1,1507,49500,70620,107910,49500,,IMU->,-3,-72,2053,2054,
19958,1446,752,4,1496,49500,70620,107910,49500,,IMU->,0,-71,2050,2051,
19958,1460,745,0,1508,49500,70620,107910,49500,,IMU->,0,-69,2046,2047,
19958,1466,761,0,1524,49500,70620,107910,49500,,IMU->,0,-70,2049,2050,
19958,1462,752,1,1506,49500,70620,107910,49500,,IMU->,-1,-73,2049,2050,
19958,1452,748,0,1509,49500,70620,107910,49500,,IMU->,-2,-75,2048,2049,
19989,1457,760,0,1501,49500,70620,107910,49500,,IMU->,-3,-76,2054,2055,
19989,1456,743,0,1497,49500,70620,107910,49500,,IMU->,-1,-73,2049,2050,
20355,1462,752,0,1510,49500,70620,107910,49500,,IMU->,-2,-72,2047,2048,
19989,1464,748,0,1507,49500,71214,111045,49500,,IMU->,0,-73,2048,2049,
19958,1459,1325,1685,1513,49500,71214,111045,49500,,IMU->,-3,-75,2046,2047,
19989,1466,1333,1683,1516,49500,71214,111045,49500,,IMU->,0,-77,2051,2052,
19958,1461,1323,1691,1500,49500,71214,111045,49500,,IMU->,-2,-74,2049,2050,
19989,1442,1332,1690,1505,49500,71214,111045,49500,,IMU->,-1,-68,2047,2048,
19958,1455,1357,1836,1496,49500,71214,111045,49500,,IMU->,-1,-71,2050,2051,
19989,1455,1430,2110,1510,49500,71214,111045,49500,,IMU->,-2,-72,2052,2053,
19958,1455,1551,2466,1496,49500,71214,111045,49500,,IMU->,0,-74,2053,2054,
19958,1466,1655,2810,1514,49500,71214,111045,49500,,IMU->,-4,-71,2051,2052,
19989,1465,1718,2975,1521,49500,71214,111045,49500,,IMU->,-3,-75,2051,2052,
19927,1464,1738,2977,1517,49500,71214,111045,49500,,IMU->,-3,-72,2047,2048,
20324,1463,1730,2973,1512,49500,71214,111045,49500,,IMU->,-3,-70,2050,2051,
19958,1456,1709,2877,1505,49500,71214,111045,49500,,IMU->,-2,-76,2049,2050,
19989,1470,1664,2720,1512,49500,71214,111045,49500,,IMU->,-1,-71,2047,2048,
19958,1463,1623,2555,1516,49500,71214,111045,49500,,IMU->,1,-71,2050,2051,
19958,1459,1575,2425,1511,49500,71214,111045,49500,,IMU->,-5,-72,2049,2050,
19989,1459,1547,2309,1517,49500,71214,111045,49500,,IMU->,-1,-71,2050,2051,
19989,1455,1511,2186,1495,49500,71214,111045,49500,,IMU->,-3,-74,2050,2051,
19989,1453,1476,2119,1502,49500,71214,111045,49500,,IMU->,-5,-74,2047,2048,
20019,1460,1479,2099,1510,49500,71214,111045,49500,,IMU->,-3,-73,2047,2048,
19958,1461,1481,2134,1498,49500,71214,111045,49500,,IMU->,-1,-72,2052,2053,
19989,1453,1493,2187,1514,49500,71214,111045,49500,,IMU->,-3,-70,2050,2051,
19958,1463,1521,2224,1514,49500,71214,111045,49500,,IMU->,0,-71,2048,2049,
20294,1453,1528,2282,1496,49500,71214,111045,49500,,IMU->,0,-72,2048,2049,
19958,1460,1539,2323,1511,49500,71214,111045,49500,,IMU->,-5,-71,2049,2050,
19989,1465,1554,2357,1509,49500,71214,111045,49500,,IMU->,-2,-73,2048,2049,
19989,1460,1552,2330,1509,49500,71214,111045,49500,,IMU->,0,-76,2050,2051,
19958,1456,1553,2306,1509,49500,71214,111045,49500,,IMU->,-5,-68,2051,2052,
19989,1466,1534,2277,1510,49500,71214,111045,49500,,IMU->,-1,-73,2050,2051,
19958,1465,1529,2209,1516,49500,71214,111045,49500,,IMU->,-3,-76,2047,2048,
19989,1466,1511,2173,1504,49500,71214,111045,49500,,IMU->,-1,-74,2048,2049,
19958,1461,1490,2115,1502,49500,71214,111045,49500,,IMU->,-1,-74,2048,2049,
20019,1453,1481,2058,1516,49500,71214,111045,49500,,IMU->,-1,-70,2049,2050,
19958,1466,1475,2036,1498,49500,71214,111045,49500,,IMU->,-1,-69,2049,2050,
19989,1450,1463,1998,1506,49500,71214,111045,49500,,IMU->,0,-71,2049,2050,
19958,1453,1456,1977,1511,49500,71214,111045,49500,,IMU->,0,-75,2048,2049,
20294,1451,1448,1944,1507,49500,71214,111045,49500,,IMU->,-2,-75,2050,2051,
19989,1448,1434,1909,1495,49500,71214,111045,49500,,IMU->,-2,-75,2047,2048,
19989,1459,1425,1899,1504,49500,71214,111045,49500,,IMU->,-4,-71,2047,2048,
19958,1461,1432,1868,1509,49500,71214,111045,49500,,IMU->,-4,-71,2053,2054,
19989,1448,1412,1863,1505,49500,71214,111045,49500,,IMU->,0,-73,2049,2050,
19958,1460,1420,1865,1514,49500,71214,111045,49500,,IMU->,0,-72,2046,2047,
19958,1457,1426,1843,1501,49500,71214,111045,49500,,IMU->,-4,-73,2052,2053,
19989,1456,1399,1810,1504,49500,71214,111045,49500,,IMU->,-2,-71,2050,2051,
19958,1456,1400,1780,1511,49500,71214,111045,49500,,IMU->,0,-74,2049,2050,
19989,1455,1393,1764,1499,49500,71214,111045,49500,,IMU->,-1,-72,2049,2050,
19958,1459,1378,1726,1510,49500,71214,111045,49500,,IMU->,-2,-77,2047,2048,
19989,1447,1374,1699,1503,49500,71214,111045,49500,,IMU->,0,-75,2051,2052,
20294,1447,1357,1663,1503,49500,71214,111045,49500,,IMU->,-4,-69,2049,2050,
19989,1461,1353,1609,1516,49500,71214,111045,49500,,IMU->,-5,-72,2048,2049,
19958,1459,1341,1595,1502,49500,71214,111045,49500,,IMU->,0,-69,2047,2048,
19958,1461,1339,1618,1512,49500,71214,111045,49500,,IMU->,-1,-73,2048,2049,
19989,1460,1383,1748,1506,49500,71214,111045,49500,,IMU->,-6,-70,2049,2050,
19958,1459,1440,2010,1499,49500,71214,111045,49500,,IMU->,-2,-74,2050,2051,
19989,1455,1534,2312,1511,49500,71214,111045,49500,,IMU->,-6,-78,2050,2051,
19958,1462,1628,2618,1512,49500,71214,111045,49500,,IMU->,-4,-75,2049,2050,
19989,1465,1676,2776,1513,49500,71214,111045,49500,,IMU->,-1,-71,2047,2048,
19989,1463,1699,2795,1514,49500,71214,111045,49500,,IMU->,-3,-76,2051,2052,
20019,1464,1682,2714,1511,49500,71214,111045,49500,,IMU->,2,-72,2051,2052,
19958,1465,1649,2567,1511,49500,71214,111045,49500,,IMU->,0,-68,2048,2049,
19958,1448,1601,2416,1507,49500,71214,111045,49500,,IMU->,-4,-73,2051,2052,
19989,1469,1565,2273,1514,49500,71214,111045,49500,,IMU->,-2,-72,2047,2048,
20294,1452,1521,2127,1503,49500,71214,111045,49500,,IMU->,-3,-74,2051,2052,
19958,1461,1479,2010,1508,49500,71214,111045,49500,,IMU->,-3,-73,2051,2052,
19989,1471,1455,1897,1515,49500,71214,111045,49500,,IMU->,-6,-75,2049,2050,
19989,1459,1427,1847,1500,49500,71214,111045,49500,,IMU->,-3,-72,2050,2051,
19989,1463,1424,1848,1511,49500,71214,111045,49500,,IMU->,-2,-73,2048,2049,
19958,1460,1440,1872,1508,49500,71214,111045,49500,,IMU->,-2,-72,2048,2049,
19958,1453,1448,1908,1499,49500,71214,111045,49500,,IMU->,-4,-73,2044,2045,
19989,1459,1466,1945,1504,49500,71214,111045,49500,,IMU->,-3,-68,2052,2053,
19958,1454,1478,2005,1503,49500,71214,111045,49500,,IMU->,-1,-70,2049,2050,
19927,1458,1490,2053,1517,49500,71214,111045,49500,,IMU->,-6,-70,2051,2052,
19989,1466,1519,2074,1508,49500,71214,111045,49500,,IMU->,-2,-71,2050,2051,
20294,1459,1502,2068,1497,49500,71214,111045,49500,,IMU->,-4,-73,2049,2050,
19989,1465,1507,2045,1520,49500,71214,111045,49500,,IMU->,-3,-74,2051,2052,
19958,1463,1493,2016,1503,49500,71214,111045,49500,,IMU->,-3,-72,2050,2051,
19989,1451,1476,1952,1512,49500,71214,111045,49500,,IMU->,-2,-69,2049,2050,
19958,1459,1470,1901,1509,49500,71214,111045,49500,,IMU->,-3,-69,2052,2053,
19989,1465,1444,1843,1496,49500,71214,111045,49500,,IMU->,-2,-70,2049,2050,
19958,1458,1432,1765,1512,49500,71214,111045,49500,,IMU->,-3,-71,2051,2052,
19958,1464,1421,1755,1507,49500,71214,111045,49500,,IMU->,-3,-73,2051,2052,
19989,1454,1402,1724,1509,49500,71214,111045,49500,,IMU->,-6,-73,2049,2050,
19958,1445,1401,1671,1503,49500,71214,111045,49500,,IMU->,-2,-71,2050,2051,
19989,1462,1391,1645,1508,49500,71214,111045,49500,,IMU->,-2,-70,2049,2050,
19989,1466,1388,1626,1515,49500,71214,111045,49500,,IMU->,-5,-73,2046,2047,
19989,1463,1375,1593,1506,49500,71214,111045,49500,,IMU->,-2,-69,2044,2045,
20355,1464,1362,1581,1507,49500,71214,111045,49500,,IMU->,-2,-71,2050,2051,
19958,1455,1365,1576,1510,49500,71214,111045,49500,,IMU->,0,-72,2051,2052,
19958,1456,1366,1578,1495,49500,71214,111045,49500,,IMU->,0,-68,2050,2051,
19958,1456,1362,1548,1509,49500,71214,111045,49500,,IMU->,-3,-73,2048,2049,
19958,1458,1361,1560,1510,49500,71214,111045,49500,,IMU->,2,-72,2047,2048,
19958,1466,1363,1540,1515,49500,71214,111045,49500,,IMU->,-3,-69,2050,2051,
19989,1449,1363,1519,1502,49500,71214,111045,49500,,IMU->,0,-72,2049,2050,
19958,1453,1352,1526,1508,49500,71214,111045,49500,,IMU->,-1,-70,2051,2052,
19989,1455,1354,1493,1507,49500,71214,111045,49500,,IMU->,-3,-71,2049,2050,
19958,1447,1338,1469,1499,49500,71214,111045,49500,,IMU->,0,-73,2053,2054,
20324,1456,1324,1430,1510,49500,71214,111045,49500,,IMU->,-3,-71,2046,2047,
19989,1459,1325,1389,1510,49500,71214,111045,49500,,IMU->,0,-72,2046,2047,
19958,1461,1319,1394,1502,49500,71214,111045,49500,,IMU->,2,-73,2047,2048,
19958,1464,1329,1425,1517,49500,71214,111045,49500,,IMU->,-2,-70,2049,2050,
19989,1466,1377,1615,1507,49500,71214,111045,49500,,IMU->,-6,-76,2050,2051,
19958,1455,1440,1854,1506,49500,71214,111045,49500,,IMU->,-5,-69,2049,2050,
19958,1455,1527,2131,1502,49500,71214,111045,49500,,IMU->,0,-72,2051,2052,
19958,1463,1601,2399,1504,49500,71214,111045,49500,,IMU->,-1,-72,2050,2051,
19958,1466,1663,2515,1526,49500,71214,111045,49500,,IMU->,-3,-73,2050,2051,
20019,1460,1674,2530,1516,49500,71214,111045,49500,,IMU->,-4,-73,2051,2052,
19958,1473,1656,2459,1514,49500,71214,111045,49500,,IMU->,0,-73,2050,2051,
19958,1462,1624,2310,1509,49500,71214,111045,49500,,IMU->,-2,-72,2048,2049,
20355,1461,1564,2133,1500,49500,71214,111045,49500,,IMU->,-1,-73,2052,2053,
19989,1460,1518,1970,1506,49500,71214,111045,49500,,IMU->,-1,-70,2049,2050,
19989,1466,1474,1826,1515,49500,71214,111045,49500,,IMU->,-2,-74,2050,2051,
19958,1469,1423,1676,1513,49500,71214,111045,49500,,IMU->,0,-72,2051,2052,
19958,1456,1400,1576,1508,49500,71214,111045,49500,,IMU->,0,-71,2046,2047,
19958,1463,1380,1543,1508,49500,71214,111045,49500,,IMU->,-1,-73,2050,2051,
19989,1454,1378,1519,1506,49500,71214,111045,49500,,IMU->,-1,-73,2049,2050,
19989,1456,1390,1592,1506,49500,71214,111045,49500,,IMU->,-1,-74,2052,2053,
19958,1462,1420,1668,1516,49500,71214,111045,49500,,IMU->,-3,-70,2051,2052,
19958,1457,1449,1757,1512,49500,71214,111045,49500,,IMU->,-7,-71,2048,2049,
19989,1459,1467,1820,1507,49500,71214,111045,49500,,IMU->,-1,-71,2047,2048,
19958,1459,1481,1833,1505,49500,71214,111045,49500,,IMU->,-4,-70,2050,2051,
19989,1460,1480,1835,1503,49500,71214,111045,49500,,IMU->,-4,-71,2049,2050,
20324,1460,1470,1815,1507,49500,71214,111045,49500,,IMU->,-2,-67,2046,2047,
19989,1463,1465,1757,1505,49500,71214,111045,49500,,IMU->,-5,-72,2049,2050,
19989,1460,1445,1709,1509,49500,71214,111045,49500,,IMU->,0,-70,2049,2050,
19958,1463,1437,1652,1516,49500,71214,111045,49500,,IMU->,-1,-69,2047,2048,
19958,1464,1421,1604,1507,49500,71214,111045,49500,,IMU->,-2,-72,2051,2052,
19989,1455,1403,1534,1509,49500,71214,111045,49500,,IMU->,-2,-71,2051,2052,
19958,1450,1378,1466,1495,49500,71214,111045,49500,,IMU->,-2,-69,2050,2051,
19989,1447,1353,1424,1493,49500,71214,111045,49500,,IMU->,0,-74,2049,2050,
19958,1462,1362,1400,1515,49500,71214,111045,49500,,IMU->,-1,-73,2048,2049,
19958,1460,1356,1372,1508,49500,71214,111045,49500,,IMU->,-2,-69,2052,2053,
19989,1457,1333,1340,1509,49500,71214,111045,49500,,IMU->,-3,-73,2049,2050,
19989,1455,1328,1303,1512,49500,71214,111045,49500,,IMU->,-2,-70,2049,2050,
19989,1450,1316,1268,1502,49500,71214,111045,49500,,IMU->,-5,-69,2047,2048,
20324,1454,1304,1233,1500,49500,71214,111045,49500,,IMU->,-3,-69,2051,2052,
19958,1453,1303,1229,1504,49500,71214,111045,49500,,IMU->,-5,-69,2049,2050,
19989,1459,1282,1193,1506,49500,71214,111045,49500,,IMU->,0,-69,2049,2050,
19958,1456,1301,1185,1510,49500,71214,111045,49500,,IMU->,-2,-69,2053,2054,
19958,1464,1306,1206,1511,49500,71214,111045,49500,,IMU->,-2,-73,2047,2048,
19989,1462,1311,1214,1510,49500,71214,111045,49500,,IMU->,0,-69,2047,2048,
19958,1459,1333,1330,1503,49500,71214,111045,49500,,IMU->,-4,-71,2048,2049,
19989,1458,1397,1562,1508,49500,71214,111045,49500,,IMU->,-1,-72,2052,2053,
19958,1452,1488,1823,1508,49500,71214,111045,49500,,IMU->,-3,-71,2044,2045,
19958,1460,1564,2099,1505,49500,71214,111045,49500,,IMU->,-3,-73,2049,2050,
19989,1447,1637,2289,1523,49500,71214,111045,49500,,IMU->,-2,-73,2050,2051,
19958,1452,1672,2355,1523,49500,71214,111045,49500,,IMU->,-2,-64,2047,2048,
20355,1471,1668,2338,1513,49500,71214,111045,49500,,IMU->,-2,-67,2051,2052,
19989,1460,1642,2211,1501,49500,71214,111045,49500,,IMU->,-1,-73,2048,2049,
19958,1461,1597,2061,1509,49500,71214,111045,49500,,IMU->,-4,-72,2051,2052,
19989,1466,1561,1888,1515,49500,71214,111045,49500,,IMU->,-2,-70,2048,2049,
19958,1461,1501,1730,1504,49500,70884,110319,49500,,IMU->,-4,-70,2048,2049,
19958,1465,1161,845,1517,49500,70884,110319,49500,,IMU->,-1,-71,2049,2050,
19989,1457,1132,721,1502,49500,70884,110319,49500,,IMU->,-2,-73,2048,2049,
19958,1454,1092,655,1495,49500,70884,110319,49500,,IMU->,-2,-72,2049,2050,
19989,1459,1088,633,1511,49500,70884,110319,49500,,IMU->,0,-73,2045,2046,
19958,1463,1099,639,1505,49500,70884,110319,49500,,IMU->,0,-74,2052,2053,
19958,1455,1092,676,1510,49500,70884,110319,49500,,IMU->,-5,-70,2047,2048,
19989,1454,1123,726,1516,49500,70884,110319,49500,,IMU->,-3,-70,2049,2050,
20324,1457,1141,777,1501,49500,70884,110319,49500,,IMU->,-2,-72,2046,2047,
19958,1463,1153,800,1512,49500,70884,110319,49500,,IMU->,-5,-71,2048,2049,
19989,1460,1146,792,1502,49500,70884,110319,49500,,IMU->,-3,-75,2046,2047,
19958,1456,1135,773,1505,49500,70884,110319,49500,,IMU->,-1,-70,2051,2052,
19958,1459,1148,751,1513,49500,70884,110319,49500,,IMU->,-1,-75,2051,2052,
19989,1463,1131,717,1504,49500,70884,110319,49500,,IMU->,-2,-70,2049,2050,
19958,1455,1126,683,1512,49500,70884,110319,49500,,IMU->,-4,-71,2051,2052,
19989,1464,1120,651,1512,49500,70884,110319,49500,,IMU->,-3,-72,2051,2052,
19989,1458,1091,635,1500,49500,70884,110319,49500,,IMU->,0,-73,2048,2049,
19958,1444,1102,629,1499,49500,70884,110319,49500,,IMU->,-2,-71,2046,2047,
19989,1448,1097,604,1500,49500,70884,110319,49500,,IMU->,0,-68,2049,2050,
19958,1461,1065,520,1504,49500,70884,110319,49500,,IMU->,1,-69,2050,2051,
20324,1457,1041,441,1506,49500,70884,110319,49500,,IMU->,-2,-67,2048,2049,
19989,1466,1015,398,1511,49500,70884,110319,49500,,IMU->,-3,-73,2049,2050,
19958,1458,1003,342,1514,49500,70884,110319,49500,,IMU->,-3,-73,2051,2052,
19989,1448,984,293,1497,49500,70884,110319,49500,,IMU->,0,-73,2047,2048,
19958,1459,961,215,1507,49500,70884,110319,49500,,IMU->,-3,-74,2052,2053,
19958,1453,938,156,1503,49500,70884,110319,49500,,IMU->,-3,-73,2047,2048,
19989,1459,924,114,1508,49500,70884,110319,49500,,IMU->,2,-71,2051,2052,
19958,1458,934,113,1506,49500,70884,110319,49500,,IMU->,0,-73,2049,2050,
19958,1447,931,137,1500,49500,70884,110319,49500,,IMU->,0,-72,2045,2046,
19958,1455,955,196,1513,49500,70884,110319,49500,,IMU->,-5,-70,2048,2049,
19958,1453,1010,381,1503,49500,70884,110319,49500,,IMU->,-5,-71,2049,2050,
19989,1461,1077,650,1513,49500,70884,110319,49500,,IMU->,-2,-70,2048,2049,
19989,1461,1169,916,1514,49500,70884,110319,49500,,IMU->,-6,-74,2046,2047,
20324,1459,1241,1133,1498,49500,70884,110319,49500,,IMU->,-1,-74,2049,2050,
19989,1465,1269,1197,1520,49500,70884,110319,49500,,IMU->,-3,-73,2048,2049,
19989,1464,1281,1187,1507,49500,70884,110319,49500,,IMU->,-4,-76,2050,2051,
19989,1459,1238,1075,1505,49500,70884,110319,49500,,IMU->,-3,-71,2051,2052,
19958,1459,1210,933,1515,49500,70884,110319,49500,,IMU->,0,-70,2050,2051,
19958,1464,1176,821,1506,49500,70884,110319,49500,,IMU->,-1,-66,2046,2047,
19989,1456,1140,710,1508,49500,70884,110319,49500,,IMU->,4,-70,2048,2049,
19958,1463,1115,621,1511,49500,70884,110319,49500,,IMU->,-4,-73,2049,2050,
19989,1461,1063,491,1500,49500,70884,110319,49500,,IMU->,-5,-74,2051,2052,
19958,1446,1044,405,1508,49500,70884,110319,49500,,IMU->,-3,-76,2049,2050,
19958,1456,1024,370,1505,49500,70884,110319,49500,,IMU->,-1,-73,2048,2049,
19989,1464,1018,355,1506,49500,70884,110319,49500,,IMU->,-6,-69,2048,2049,
20324,1457,1038,386,1504,49500,70884,110319,49500,,IMU->,-6,-73,2048,2049,
19989,1471,1046,426,1507,49500,70884,110319,49500,,IMU->,-1,-75,2053,2054,
19989,1464,1053,441,1499,49500,70884,110319,49500,,IMU->,-2,-75,2049,2050,
19958,1457,1059,478,1504,49500,70884,110319,49500,,IMU->,-3,-74,2050,2051,
19989,1452,1071,493,1508,49500,70884,110319,49500,,IMU->,-3,-68,2047,2048,
19989,1452,1067,508,1507,49500,70884,110319,49500,,IMU->,0,-68,2050,2051,
19958,1464,1070,505,1512,49500,70884,110319,49500,,IMU->,-1,-75,2050,2051,
19989,1457,1065,470,1506,49500,70884,110319,49500,,IMU->,-4,-72,2052,2053,
19989,1453,1059,469,1504,49500,70884,110319,49500,,IMU->,-5,-74,2047,2048,
19989,1462,1065,465,1510,49500,70884,110319,49500,,IMU->,-2,-71,2046,2047,
19989,1453,1057,431,1498,49500,70884,110319,49500,,IMU->,-2,-73,2052,2053,
19958,1455,1034,405,1508,49500,70884,110319,49500,,IMU->,0,-70,2052,2053,
19958,1455,1028,351,1515,49500,70884,110319,49500,,IMU->,-3,-73,2051,2052,
19989,1449,1015,328,1494,49500,70884,110319,49500,,IMU->,-4,-71,2047,2048,
19958,1452,1007,295,1507,49500,70884,110319,49500,,IMU->,-2,-70,2048,2049,
19989,1468,1003,282,1512,49500,70884,110319,49500,,IMU->,0,-73,2046,2047,
20324,1462,983,255,1501,49500,70884,110319,49500,,IMU->,-3,-74,2052,2053,
19989,1447,985,238,1511,49500,70884,110319,49500,,IMU->,-3,-70,2051,2052,
19989,1462,986,251,1502,49500,70884,110319,49500,,IMU->,-2,-71,2049,2050,
19958,1461,992,241,1510,49500,70884,110319,49500,,IMU->,-3,-72,2052,2053,
19958,1454,987,222,1508,49500,70884,110319,49500,,IMU->,-2,-71,2048,2049,
19989,1462,968,210,1500,49500,70884,110319,49500,,IMU->,-6,-72,2050,2051,
19989,1450,968,186,1505,49500,70884,110319,49500,,IMU->,0,-70,2049,2050,
19958,1455,962,176,1502,49500,70884,110319,49500,,IMU->,0,-70,2050,2051,
19958,1456,955,171,1504,49500,70884,110319,49500,,IMU->,-2,-71,2048,2049,
19958,1453,975,205,1512,49500,70884,110319,49500,,IMU->,-4,-70,2049,2050,
19989,1462,994,299,1508,49500,70884,110319,49500,,IMU->,-5,-75,2050,2051,
19958,1446,1047,483,1509,49500,70884,110319,49500,,IMU->,-2,-68,2048,2049,
19989,1452,1132,786,1509,49500,70884,110319,49500,,IMU->,0,-73,2050,2051,
20324,1469,1233,1123,1510,49500,70884,110319,49500,,IMU->,-1,-72,2047,2048,
19989,1449,1300,1326,1510,49500,70884,110319,49500,,IMU->,0,-74,2050,2051,
19958,1470,1325,1416,1517,49500,70884,110319,49500,,IMU->,-4,-71,2049,2050,
19989,1469,1350,1380,1519,49500,70884,110319,49500,,IMU->,-3,-71,2047,2048,
19958,1460,1320,1291,1509,49500,70884,110319,49500,,IMU->,-3,-74,2049,2050,
19989,1472,1293,1180,1518,49500,70884,110319,49500,,IMU->,-1,-71,2049,2050,
19989,1461,1251,1028,1505,49500,70884,110319,49500,,IMU->,-2,-71,2051,2052,
19989,1459,1192,892,1502,49500,70884,110319,49500,,IMU->,-2,-70,2051,2052,
19958,1451,1162,771,1508,49500,70884,110319,49500,,IMU->,0,-75,2046,2047,
19958,1454,1130,689,1501,49500,70884,110319,49500,,IMU->,-3,-69,2049,2050,
19989,1465,1117,612,1516,49500,70884,110319,49500,,IMU->,-4,-73,2050,2051,
19989,1460,1107,565,1507,49500,70884,110319,49500,,IMU->,-2,-73,2048,2049,
19989,1455,1092,584,1507,49500,70884,110319,49500,,IMU->,-3,-71,2050,2051,
19989,1451,1116,615,1510,49500,70884,110319,49500,,IMU->,-2,-72,2047,2048,
19989,1460,1127,659,1497,49500,70884,110319,49500,,IMU->,-2,-72,2052,2053,
19989,1462,1143,702,1510,49500,70884,110319,49500,,IMU->,1,-73,2048,2049,
20324,1463,1163,761,1513,49500,70884,110319,49500,,IMU->,-1,-71,2050,2051,
19958,1466,1170,814,1509,49500,70884,110319,49500,,IMU->,-1,-71,2048,2049,
19958,1465,1180,823,1514,49500,70884,110319,49500,,IMU->,-2,-72,2049,2050,
19989,1460,1184,816,1502,49500,70884,110319,49500,,IMU->,-2,-73,2050,2051,
19989,1456,1169,778,1509,49500,70884,110319,49500,,IMU->,-4,-71,2050,2051,
19989,1461,1169,748,1510,49500,70884,110319,49500,,IMU->,-2,-73,2046,2047,
19958,1464,1152,717,1500,49500,70884,110319,49500,,IMU->,0,-72,2052,2053,
19958,1460,1136,638,1510,49500,70884,110319,49500,,IMU->,-2,-73,2048,2049,
19989,1461,1122,592,1504,49500,70884,110319,49500,,IMU->,-5,-72,2044,2045,
19958,1464,1102,555,1511,49500,70884,110319,49500,,IMU->,-3,-74,2048,2049,
19989,1451,1096,512,1505,49500,70884,110319,49500,,IMU->,-3,-74,2045,2046,
19958,1439,1074,479,1505,49500,70884,110319,49500,,IMU->,-3,-72,2050,2051,
19989,1458,1070,445,1515,49500,70884,110319,49500,,IMU->,-5,-73,2048,2049,
20355,1465,1070,434,1502,49500,70884,110319,49500,,IMU->,0,-72,2049,2050,
19958,1467,1061,414,1509,49500,70884,110319,49500,,IMU->,0,-72,2047,2048,
19958,1461,1049,374,1509,49500,70884,110319,49500,,IMU->,-2,-72,2048,2049,
19989,1463,1028,360,1506,49500,70884,110319,49500,,IMU->,-2,-73,2046,2047,
19958,1449,1031,345,1505,49500,70884,110319,49500,,IMU->,0,-72,2047,2048,
19958,1450,1026,347,1495,49500,70884,110319,49500,,IMU->,-6,-74,2049,2050,
19958,1459,1022,309,1509,49500,70884,110319,49500,,IMU->,-3,-72,2051,2052,
19958,1460,1025,298,1507,49500,70884,110319,49500,,IMU->,-4,-72,2047,2048,
19989,1457,1010,293,1513,49500,70884,110319,49500,,IMU->,-3,-75,2047,2048,
19958,1464,1014,272,1514,49500,70884,110319,49500,,IMU->,-2,-74,2052,2053,
19989,1455,1011,251,1492,49500,70884,110319,49500,,IMU->,-3,-68,2050,2051,
20324,1455,994,242,1503,49500,70884,110319,49500,,IMU->,-8,-79,2050,2051,
19958,1463,1004,253,1510,49500,70884,110319,49500,,IMU->,-7,-74,2051,2052,
19958,1459,1012,301,1503,49500,70884,110319,49500,,IMU->,-1,-67,2054,2055,
19989,1453,1056,451,1517,49500,70884,110319,49500,,IMU->,11,-36,2054,2054,
19958,1468,1128,732,1512,49500,70884,110319,49500,,IMU->,-4,-80,2044,2045,
19989,1469,1216,1067,1516,49500,70884,110319,49500,,IMU->,6,-59,2045,2045,
19958,1464,1309,1319,1516,49500,70884,110319,49500,,IMU->,-2,-72,2051,2052,
19989,1468,1336,1432,1506,49500,70884,110319,49500,,IMU->,-1,-73,2043,2044,
19989,1461,1345,1420,1524,49500,70884,110319,49500,,IMU->,-1,-71,2053,2054,
19958,1463,1341,1348,1511,49500,70884,110319,49500,,IMU->,-1,-72,2053,2054,
19989,1466,1303,1212,1515,49500,70884,110319,49500,,IMU->,-2,-74,2044,2045,
19958,1461,1264,1051,1519,49500,70884,110319,49500,,IMU->,2,-69,2055,2056,
20324,1473,1211,903,1512,49500,70884,110319,49500,,IMU->,-3,-70,2049,2050,
19958,1459,1168,765,1513,49500,70884,110319,49500,,IMU->,-1,-77,2039,2040,
19989,1461,1139,662,1510,49500,70884,110319,49500,,IMU->,0,-69,2049,2050,
19958,1467,1108,562,1507,49500,70884,110319,49500,,IMU->,-2,-70,2049,2050,
19989,1464,1094,512,1516,49500,70884,110319,49500,,IMU->,-2,-75,2048,2049,
19958,1464,1090,526,1514,49500,70884,110319,49500,,IMU->,2,-70,2044,2045,
19958,1463,1111,558,1512,49500,70884,110319,49500,,IMU->,5,-68,2046,2047,
19958,1454,1116,600,1501,49500,70884,110319,49500,,IMU->,0,-69,2056,2057,
19958,1460,1125,650,1510,49500,70884,110319,49500,,IMU->,0,-72,2053,2054,
19958,1457,1164,714,1516,49500,70884,110319,49500,,IMU->,-2,-73,2048,2049,
19989,1468,1175,805,1514,49500,70884,110319,49500,,IMU->,1,-69,2040,2041,
20324,1468,1193,822,1518,49500,70884,110319,49500,,IMU->,-3,-72,2052,2053,
19958,1462,1208,847,1513,49500,70884,110319,49500,,IMU->,0,-68,2054,2055,
19958,1469,1201,843,1511,49500,70884,110319,49500,,IMU->,1,-70,2047,2048,
19958,1458,1194,813,1507,49500,70884,110319,49500,,IMU->,0,-68,2048,2049,
19958,1464,1174,768,1504,49500,70884,110319,49500,,IMU->,-1,-71,2048,2049,
19989,1466,1163,717,1518,49500,70884,110319,49500,,IMU->,-4,-72,2051,2052,
19989,1463,1157,690,1511,49500,70884,110319,49500,,IMU->,0,-76,2045,2046,
19958,1466,1150,650,1516,49500,70884,110319,49500,,IMU->,0,-77,2049,2050,
19958,1469,1149,617,1521,49500,70884,110319,49500,,IMU->,6,-64,2043,2044,
20324,1467,1130,606,1501,49500,70884,110319,49500,,IMU->,-7,-67,2072,2073,
19958,1458,1131,598,1512,49500,70884,110319,49500,,IMU->,11,-57,2021,2021,
19989,1462,1136,580,1506,49500,70884,110319,49500,,IMU->,2,-69,2050,2051,
19958,1471,1115,556,1509,49500,70884,110319,49500,,IMU->,-7,-76,2058,2059,
19989,1471,1126,551,1522,49500,70917,110847,49500,,IMU->,2,-66,2050,2051,
19958,1475,1111,1149,1515,49500,70917,110847,49500,,IMU->,-2,-78,2048,2049,
19958,1459,1107,1128,1515,49500,70917,110847,49500,,IMU->,-14,-99,2048,2050,
19989,1465,1106,1127,1509,49500,70917,110847,49500,,IMU->,6,-60,2043,2043,
19958,1469,1097,1112,1511,49500,70917,110847,49500,,IMU->,13,-49,2031,2031,
19958,1454,1097,1102,1513,49500,70917,110847,49500,,IMU->,-17,-85,2070,2071,
19989,1461,1091,1102,1514,49500,70917,110847,49500,,IMU->,0,-61,2057,2057,
19958,1456,1092,1089,1521,49500,70917,110847,49500,,IMU->,-11,-88,2043,2044,
19989,1464,1093,1094,1515,49500,70917,110847,49500,,IMU->,-2,-76,2045,2046,
20355,1462,1094,1068,1511,49500,70917,110847,49500,,IMU->,-4,-71,2052,2053,
19958,1459,1083,1042,1511,49500,70917,110847,49500,,IMU->,1,-67,2060,2061,
19958,1472,1078,1087,1518,49500,70917,110847,49500,,IMU->,7,-66,2044,2045,
19958,1469,1109,1146,1516,49500,70917,110847,49500,,IMU->,8,-54,2032,2032,
19958,1449,1148,1288,1503,49500,70917,110847,49500,,IMU->,3,-62,2051,2051,
19958,1471,1205,1539,1518,49500,70917,110847,49500,,IMU->,0,-75,2050,2051,
19958,1466,1293,1812,1517,49500,70917,110847,49500,,IMU->,-6,-78,2056,2057,
19989,1459,1353,2026,1517,49500,70917,110847,49500,,IMU->,1,-68,2051,2052,
19958,1471,1393,2104,1527,49500,70917,110847,49500,,IMU->,-8,-72,2054,2055,
19989,1479,1398,2087,1512,49500,70917,110847,49500,,IMU->,0,-71,2050,2051,
20324,1471,1364,2008,1523,49500,70917,110847,49500,,IMU->,-2,-77,2052,2053,
19958,1478,1348,1871,1524,49500,70917,110847,49500,,IMU->,-1,-63,2047,2047,
19989,1466,1284,1708,1509,49500,70917,110847,49500,,IMU->,-1,-65,2049,2050,
19958,1458,1238,1563,1518,49500,70917,110847,49500,,IMU->,-3,-68,2052,2053,
19989,1464,1210,1450,1511,49500,70917,110847,49500,,IMU->,1,-72,2046,2047,
19958,1467,1178,1366,1516,49500,70917,110847,49500,,IMU->,-1,-70,2048,2049,
19958,1464,1173,1309,1516,49500,70917,110847,49500,,IMU->,0,-69,2049,2050,
19958,1470,1157,1299,1511,49500,70917,110847,49500,,IMU->,0,-75,2047,2048,
19958,1464,1159,1300,1529,49500,70917,110847,49500,,IMU->,-5,-71,2049,2050,
19958,1456,1169,1332,1510,49500,70917,110847,49500,,IMU->,0,-70,2046,2047,
20324,1470,1174,1368,1510,49500,70917,110847,49500,,IMU->,-3,-69,2048,2049,
19989,1468,1200,1435,1522,49500,70917,110847,49500,,IMU->,0,-69,2050,2051,
19958,1474,1214,1508,1514,49500,70917,110847,49500,,IMU->,-1,-68,2048,2049,
19958,1464,1225,1543,1516,49500,70917,110847,49500,,IMU->,-4,-67,2047,2048,
19989,1464,1241,1552,1517,49500,70917,110847,49500,,IMU->,-3,-73,2046,2047,
19958,1474,1243,1556,1515,49500,70917,110847,49500,,IMU->,0,-68,2050,2051,
19958,1457,1240,1528,1515,49500,70917,110847,49500,,IMU->,-2,-71,2051,2052,
19989,1466,1224,1507,1523,49500,70917,110847,49500,,IMU->,0,-72,2050,2051,
19958,1473,1219,1471,1517,49500,70917,110847,49500,,IMU->,3,-72,2045,2046,
19958,1448,1204,1430,1506,49500,70917,110847,49500,,IMU->,1,-72,2051,2052,
19958,1462,1205,1418,1511,49500,70917,110847,49500,,IMU->,0,-69,2049,2050,
20324,1471,1202,1363,1511,49500,70917,110847,49500,,IMU->,0,-68,2050,2051,
19958,1462,1160,1328,1508,49500,70917,110847,49500,,IMU->,0,-72,2051,2052,
19958,1467,1159,1274,1520,49500,70917,110847,49500,,IMU->,-2,-71,2051,2052,
19989,1469,1146,1252,1509,49500,70917,110847,49500,,IMU->,-3,-73,2050,2051,
19958,1460,1132,1237,1506,49500,70917,110847,49500,,IMU->,-1,-68,2044,2045,
19989,1471,1140,1218,1515,49500,70917,110847,49500,,IMU->,-2,-74,2048,2049,
19958,1461,1123,1189,1507,49500,70917,110847,49500,,IMU->,-3,-70,2048,2049,
19989,1461,1115,1172,1510,49500,70917,110847,49500,,IMU->,0,-77,2048,2049,
19958,1459,1110,1159,1502,49500,70917,110847,49500,,IMU->,0,-73,2050,2051,
19958,1454,1101,1140,1508,49500,70917,110847,49500,,IMU->,0,-71,2050,2051,
20324,1476,1121,1157,1523,49500,70917,110847,49500,,IMU->,0,-69,2050,2051,
19958,1474,1118,1201,1508,49500,70917,110847,49500,,IMU->,0,-72,2052,2053,
19958,1464,1161,1350,1518,49500,70917,110847,49500,,IMU->,-1,-72,2047,2048,
19958,1466,1240,1609,1518,49500,70917,110847,49500,,IMU->,1,-72,2051,2052,
19958,1466,1320,1928,1506,49500,70917,110847,49500,,IMU->,-3,-72,2050,2051,
19989,1460,1404,2174,1519,49500,70917,110847,49500,,IMU->,0,-70,2053,2054,
19958,1469,1450,2299,1518,49500,70917,110847,49500,,IMU->,-3,-69,2045,2046,
19989,1476,1460,2313,1524,49500,70917,110847,49500,,IMU->,1,-68,2049,2050,
19958,1470,1456,2273,1517,49500,70917,110847,49500,,IMU->,0,-70,2048,2049,
19958,1474,1427,2172,1520,49500,70917,110847,49500,,IMU->,0,-70,2050,2051,
20324,1470,1390,2015,1515,49500,70917,110847,49500,,IMU->,0,-67,2049,2050,
19958,1472,1337,1888,1516,49500,70917,110847,49500,,IMU->,0,-68,2050,2051,
19958,1472,1289,1732,1520,49500,70917,110847,49500,,IMU->,0,-68,2049,2050,
19958,1464,1246,1594,1511,49500,70917,110847,49500,,IMU->,-2,-70,2049,2050,
19989,1472,1213,1476,1512,49500,70917,110847,49500,,IMU->,0,-69,2049,2050,
19958,1469,1193,1433,1521,49500,70917,110847,49500,,IMU->,-3,-71,2051,2052,
19989,1467,1180,1429,1516,49500,70917,110847,49500,,IMU->,-2,-77,2050,2051,
19958,1466,1185,1442,1514,49500,70917,110847,49500,,IMU->,-5,-70,2049,2050,
19989,1457,1193,1489,1509,49500,70917,110847,49500,,IMU->,-8,-77,2050,2051,
19989,1464,1213,1557,1515,49500,70917,110847,49500,,IMU->,-5,-76,2049,2050,
19989,1467,1243,1617,1527,49500,70917,110847,49500,,IMU->,-4,-80,2048,2049,
19958,1466,1243,1666,1514,49500,70917,110847,49500,,IMU->,-2,-74,2047,2048,
20324,1473,1253,1691,1518,49500,70917,110847,49500,,IMU->,-3,-73,2052,2053,
19958,1469,1272,1699,1509,49500,70917,110847,49500,,IMU->,-2,-69,2052,2053,
19989,1461,1253,1679,1505,49500,70917,110847,49500,,IMU->,-1,-72,2047,2048,
19958,1467,1259,1653,1521,49500,70917,110847,49500,,IMU->,0,-70,2051,2052,
19958,1475,1250,1633,1515,49500,70917,110847,49500,,IMU->,-2,-71,2047,2048,
19989,1467,1229,1556,1522,49500,70917,110847,49500,,IMU->,0,-69,2051,2052,
19958,1471,1221,1510,1515,49500,70917,110847,49500,,IMU->,0,-71,2052,2053,
19958,1470,1201,1470,1510,49500,70917,110847,49500,,IMU->,1,-74,2050,2051,
19958,1457,1184,1423,1514,49500,70917,110847,49500,,IMU->,1,-70,2050,2051,
19958,1459,1175,1405,1510,49500,70917,110847,49500,,IMU->,0,-70,2047,2048,
20324,1470,1162,1361,1507,49500,70917,110847,49500,,IMU->,0,-71,2053,2054,
19958,1465,1165,1364,1519,49500,70917,110847,49500,,IMU->,-7,-72,2053,2054,
19989,1482,1164,1359,1515,49500,70917,110847,49500,,IMU->,-2,-67,2048,2049,
19958,1467,1158,1300,1520,49500,70917,110847,49500,,IMU->,-4,-71,2048,2049,
19989,1468,1142,1322,1512,49500,70917,110847,49500,,IMU->,-5,-70,2050,2051,
19958,1463,1143,1324,1512,49500,70917,110847,49500,,IMU->,-3,-69,2049,2050,
19989,1455,1154,1318,1509,49500,70917,110847,49500,,IMU->,-5,-70,2046,2047,
19958,1468,1145,1310,1514,49500,70917,110847,49500,,IMU->,-2,-70,2048,2049,
19958,1466,1148,1294,1519,49500,70917,110847,49500,,IMU->,1,-71,2050,2051,
19958,1465,1147,1321,1515,49500,70917,110847,49500,,IMU->,0,-68,2050,2051,
19958,1467,1179,1438,1528,49500,70917,110847,49500,,IMU->,-1,-69,2047,2048,
20324,1463,1239,1660,1512,49500,70917,110847,49500,,IMU->,1,-72,2048,2049,
19958,1467,1321,2014,1513,49500,70917,110847,49500,,IMU->,-2,-73,2048,2049,
19989,1470,1435,2337,1522,49500,70917,110847,49500,,IMU->,-4,-70,2049,2050,
19958,1469,1494,2515,1517,49500,70917,110847,49500,,IMU->,0,-68,2051,2052,
19958,1475,1523,2567,1529,49500,70917,110847,49500,,IMU->,-2,-70,2051,2052,
19989,1482,1525,2540,1516,49500,70917,110847,49500,,IMU->,-3,-70,2048,2049,
19958,1475,1496,2454,1516,49500,70917,110847,49500,,IMU->,-3,-71,2050,2051,
19989,1469,1463,2337,1523,49500,70917,110847,49500,,IMU->,-4,-70,2047,2048,
19958,1472,1415,2190,1517,49500,70917,110847,49500,,IMU->,0,-72,2048,2049,
19958,1466,1366,2031,1522,49500,70917,110847,49500,,IMU->,-1,-68,2050,2051,
19989,1467,1332,1900,1518,49500,70917,110847,49500,,IMU->,-3,-70,2049,2050,
20324,1469,1289,1797,1518,49500,70917,110847,49500,,IMU->,0,-68,2048,2049,
19958,1479,1270,1711,1521,49500,70917,110847,49500,,IMU->,-2,-72,2046,2047,
19989,1469,1245,1667,1505,49500,70917,110847,49500,,IMU->,-2,-70,2048,2049,
19989,1464,1244,1673,1518,49500,70917,110847,49500,,IMU->,1,-72,2048,2049,
19958,1459,1260,1702,1521,49500,70917,110847,49500,,IMU->,0,-72,2051,2052,
19958,1470,1271,1751,1516,49500,70917,110847,49500,,IMU->,-3,-70,2047,2048,
19958,1465,1288,1793,1523,49500,70917,110847,49500,,IMU->,0,-68,2054,2055,
19958,1466,1298,1865,1522,49500,70917,110847,49500,,IMU->,-1,-71,2049,2050,
19989,1473,1296,1864,1519,49500,70917,110847,49500,,IMU->,-3,-68,2053,2054,
19958,1456,1300,1854,1509,49500,70917,110847,49500,,IMU->,0,-70,2049,2050,
19958,1466,1285,1825,1515,49500,70917,110847,49500,,IMU->,-2,-71,2052,2053,
20355,1468,1281,1777,1517,49500,70917,110847,49500,,IMU->,-1,-72,2049,2050,
19958,1468,1261,1741,1516,49500,70917,110847,49500,,IMU->,-1,-72,2052,2053,
19989,1475,1239,1678,1521,49500,70917,110847,49500,,IMU->,0,-70,2047,2048,
19958,1466,1226,1599,1514,49500,70917,110847,49500,,IMU->,-2,-70,2049,2050,
19958,1468,1189,1525,1512,49500,70917,110847,49500,,IMU->,-1,-71,2049,2050,
19989,1466,1174,1463,1517,49500,70917,110847,49500,,IMU->,0,-70,2048,2049,
19958,1461,1146,1402,1514,49500,70917,110847,49500,,IMU->,0,-70,2049,2050,
19958,1466,1132,1355,1520,49500,70917,110847,49500,,IMU->,-1,-72,2052,2053,
19989,1462,1125,1314,1514,49500,70917,110847,49500,,IMU->,-1,-73,2049,2050,
19958,1468,1108,1276,1520,49500,70917,110847,49500,,IMU->,-2,-69,2051,2052,
19989,1466,1102,1236,1520,49500,70917,110847,49500,,IMU->,0,-69,2049,2050,
19958,1457,1075,1205,1510,49500,70917,110847,49500,,IMU->,-3,-69,2049,2050,
20355,1468,1069,1178,1516,49500,70917,110847,49500,,IMU->,-1,-73,2047,2048,
19989,1466,1075,1150,1506,49500,70917,110847,49500,,IMU->,1,-68,2050,2051,
19958,1464,1063,1148,1509,49500,70917,110847,49500,,IMU->,-4,-64,2050,2051,
19989,1474,1061,1140,1525,49500,70917,110847,49500,,IMU->,-2,-70,2051,2052,
19989,1469,1068,1130,1512,49500,70917,110847,49500,,IMU->,0,-69,2050,2051,
19958,1466,1044,1091,1515,49500,70917,110847,49500,,IMU->,-2,-77,2051,2052,
19989,1467,1045,1101,1515,49500,70917,110847,49500,,IMU->,0,-63,2048,2048,
19958,1468,1046,1117,1509,49500,70917,110847,49500,,IMU->,-5,-68,2052,2053,
19989,1467,1083,1238,1517,49500,70917,110847,49500,,IMU->,0,-68,2050,2051,
19958,1467,1142,1488,1514,49500,70917,110847,49500,,IMU->,0,-65,2046,2047,
19958,1467,1219,1769,1518,49500,70917,110847,49500,,IMU->,-2,-70,2050,2051,
19989,1465,1328,2087,1525,49500,70917,110847,49500,,IMU->,-3,-72,2050,2051,
19958,1467,1383,2250,1520,49500,70917,110847,49500,,IMU->,-5,-74,2049,2050,
19989,1478,1407,2296,1532,49500,70917,110847,49500,,IMU->,-1,-66,2047,2048,
20324,1479,1402,2246,1523,49500,70917,110847,49500,,IMU->,0,-67,2049,2050,
19958,1476,1367,2146,1522,49500,70917,110847,49500,,IMU->,1,-71,2044,2045,
19958,1472,1336,2003,1524,49500,70917,110847,49500,,IMU->,1,-69,2047,2048,
19958,1475,1282,1843,1517,49500,70917,110847,49500,,IMU->,0,-67,2049,2050,
19958,1467,1237,1681,1520,49500,70917,110847,49500,,IMU->,0,-73,2045,2046,
19958,1469,1198,1580,1519,49500,70917,110847,49500,,IMU->,-4,-70,2049,2050,
19989,1477,1163,1489,1525,49500,70917,110847,49500,,IMU->,-1,-75,2050,2051,
19958,1463,1142,1410,1509,49500,70917,110847,49500,,IMU->,-4,-73,2050,2051,
19989,1462,1119,1381,1514,49500,70917,110847,49500,,IMU->,-5,-74,2050,2051,
19958,1465,1133,1385,1530,49500,70917,110847,49500,,IMU->,1,-67,2049,2050,
20324,1467,1139,1452,1508,49500,70851,110451,49500,,IMU->,0,-70,2047,2048,
19958,1468,1007,1055,1523,49500,70851,110451,49500,,IMU->,-5,-67,2051,2052,
19989,1470,1027,1083,1513,49500,70851,110451,49500,,IMU->,-5,-73,2048,2049,
19958,1468,1034,1143,1511,49500,70851,110451,49500,,IMU->,-3,-75,2050,2051,
19989,1473,1053,1175,1527,49500,70851,110451,49500,,IMU->,-3,-71,2051,2052,
19958,1476,1055,1167,1516,49500,70851,110451,49500,,IMU->,0,-71,2052,2053,
19958,1473,1034,1143,1523,49500,70851,110451,49500,,IMU->,1,-68,2052,2053,
19958,1472,1026,1086,1518,49500,70851,110451,49500,,IMU->,-3,-69,2046,2047,
19989,1468,999,1018,1511,49500,70851,110451,49500,,IMU->,-3,-72,2049,2050,
19989,1465,980,952,1526,49500,70851,110451,49500,,IMU->,-4,-71,2051,2052,
19958,1461,942,882,1512,49500,70851,110451,49500,,IMU->,-2,-69,2051,2052,
20324,1470,923,811,1517,49500,70851,110451,49500,,IMU->,-3,-72,2048,2049,
19958,1476,919,768,1524,49500,70851,110451,49500,,IMU->,-3,-72,2050,2051,
19989,1473,891,710,1508,49500,70851,110451,49500,,IMU->,0,-70,2047,2048,
19958,1463,864,618,1525,49500,70851,110451,49500,,IMU->,-1,-74,2047,2048,
19989,1474,844,574,1525,49500,70851,110451,49500,,IMU->,-1,-68,2049,2050,
19989,1476,809,489,1517,49500,70851,110451,49500,,IMU->,0,-70,2050,2051,
19958,1463,794,420,1519,49500,70851,110451,49500,,IMU->,-5,-71,2048,2049,
19989,1472,779,376,1512,49500,70851,110451,49500,,IMU->,-1,-72,2049,2050,
19958,1463,765,331,1515,49500,70851,110451,49500,,IMU->,0,-73,2050,2051,
19958,1464,751,293,1516,49500,70851,110451,49500,,IMU->,6,-73,2045,2046,
19958,1470,735,249,1521,49500,70851,110451,49500,,IMU->,-6,-68,2051,2052,
20324,1465,725,203,1513,49500,70851,110451,49500,,IMU->,0,-70,2052,2053,
19958,1473,705,149,1514,49500,70851,110451,49500,,IMU->,-3,-71,2048,2049,
19989,1473,689,86,1520,49500,70851,110451,49500,,IMU->,0,-69,2052,2053,
19958,1467,666,33,1515,49500,70851,110451,49500,,IMU->,0,-69,2047,2048,
19958,1470,647,4,1519,49500,70851,110451,49500,,IMU->,-1,-72,2051,2052,
19989,1460,633,0,1513,49500,70851,110451,49500,,IMU->,0,-71,2052,2053,
19958,1465,607,0,1514,49500,70851,110451,49500,,IMU->,0,-68,2052,2053,
19958,1477,613,0,1524,49500,70851,110451,49500,,IMU->,-1,-70,2051,2052,
19989,1466,627,10,1511,49500,70851,110451,49500,,IMU->,0,-71,2047,2048,
19958,1471,711,292,1526,49500,70851,110451,49500,,IMU->,7,-71,2053,2054,
19958,1466,817,592,1521,49500,70851,110451,49500,,IMU->,-3,-73,2046,2047,
20324,1465,884,869,1513,49500,70851,110451,49500,,IMU->,0,-72,2053,2054,
19958,1472,955,1048,1529,49500,70851,110451,49500,,IMU->,-1,-67,2050,2051,
19989,1478,994,1138,1523,49500,70851,110451,49500,,IMU->,-1,-69,2048,2049,
19989,1476,979,1095,1520,49500,70851,110451,49500,,IMU->,-3,-69,2052,2053,
19958,1473,971,1002,1529,49500,70851,110451,49500,,IMU->,1,-67,2048,2049,
19958,1485,943,892,1515,49500,70851,110451,49500,,IMU->,-2,-68,2047,2048,
19989,1467,904,748,1520,49500,70851,110451,49500,,IMU->,1,-70,2048,2049,
19958,1471,868,637,1514,49500,70851,110451,49500,,IMU->,-1,-69,2050,2051,
19989,1470,829,532,1520,49500,70851,110451,49500,,IMU->,-3,-68,2048,2049,
19958,1461,818,448,1521,49500,70851,110451,49500,,IMU->,0,-69,2049,2050,
19958,1473,799,418,1520,49500,70851,110451,49500,,IMU->,-3,-70,2049,2050,
19989,1479,807,425,1518,49500,70851,110451,49500,,IMU->,-1,-69,2051,2052,
19989,1473,833,505,1523,49500,70851,110451,49500,,IMU->,-2,-71,2048,2049,
20324,1477,870,623,1520,49500,70851,110451,49500,,IMU->,0,-69,2044,2045,
19958,1465,906,724,1515,49500,70851,110451,49500,,IMU->,0,-67,2053,2054,
19958,1471,944,840,1519,49500,70851,110451,49500,,IMU->,0,-61,2050,2050,
19958,1476,983,958,1527,49500,70851,110451,49500,,IMU->,1,-70,2046,2047,
19958,1475,1017,1058,1515,49500,70851,110451,49500,,IMU->,-3,-79,2047,2048,
19958,1478,1029,1102,1526,49500,70851,110451,49500,,IMU->,-3,-73,2048,2049,
19989,1469,1029,1063,1508,49500,70851,110451,49500,,IMU->,-1,-78,2051,2052,
19958,1458,1008,1029,1516,49500,70851,110451,49500,,IMU->,-2,-65,2048,2049,
19958,1468,1003,963,1528,49500,70851,110451,49500,,IMU->,-3,-79,2049,2050,
19989,1466,971,875,1516,49500,70851,110451,49500,,IMU->,-1,-72,2050,2051,
20355,1476,946,807,1526,49500,70851,110451,49500,,IMU->,-3,-71,2052,2053,
19958,1478,931,737,1522,49500,70851,110451,49500,,IMU->,-3,-73,2047,2048,
19989,1462,896,670,1508,49500,70851,110451,49500,,IMU->,-3,-76,2051,2052,
19958,1472,884,613,1517,49500,70851,110451,49500,,IMU->,0,-74,2051,2052,
19958,1465,872,570,1508,49500,70851,110451,49500,,IMU->,-3,-77,2052,2053,
19989,1467,855,542,1515,49500,70851,110451,49500,,IMU->,-2,-72,2048,2049,
19989,1466,867,533,1521,49500,70851,110451,49500,,IMU->,0,-70,2048,2049,
19958,1476,859,510,1517,49500,70851,110451,49500,,IMU->,-7,-81,2046,2047,
19958,1473,856,499,1522,49500,70851,110451,49500,,IMU->,2,-65,2050,2051,
19958,1461,854,493,1500,49500,70851,110451,49500,,IMU->,0,-66,2047,2048,
19958,1460,846,486,1511,49500,70851,110451,49500,,IMU->,0,-74,2046,2047,
20324,1458,861,479,1513,49500,70851,110451,49500,,IMU->,3,-62,2049,2049,
19958,1468,856,509,1510,49500,70851,110451,49500,,IMU->,0,-68,2051,2052,
19958,1468,866,493,1520,49500,70851,110451,49500,,IMU->,0,-70,2050,2051,
19958,1476,873,529,1521,49500,70851,110451,49500,,IMU->,0,-69,2050,2051,
19958,1476,888,592,1515,49500,70851,110451,49500,,IMU->,-1,-74,2048,2049,
19958,1458,945,764,1517,49500,70851,110451,49500,,IMU->,-6,-71,2045,2046,
19989,1461,1026,1057,1510,49500,70851,110451,49500,,IMU->,-2,-64,2045,2046,
19958,1469,1118,1346,1519,49500,70851,110451,49500,,IMU->,1,-70,2049,2050,
19958,1461,1202,1613,1513,49500,70851,110451,49500,,IMU->,-2,-70,2051,2052,
19989,1483,1252,1760,1532,49500,70851,110451,49500,,IMU->,-3,-73,2049,2050,
20324,1480,1277,1773,1526,49500,70851,110451,49500,,IMU->,-4,-76,2051,2052,
19958,1465,1261,1713,1514,49500,70851,110451,49500,,IMU->,-4,-77,2047,2048,
19989,1468,1241,1618,1526,49500,70851,110451,49500,,IMU->,-2,-72,2041,2042,
19958,1469,1204,1482,1519,49500,70851,110451,49500,,IMU->,4,-67,2052,2053,
19958,1468,1159,1340,1515,49500,70851,110451,49500,,IMU->,0,-62,2047,2047,
19958,1469,1131,1213,1518,49500,70851,110451,49500,,IMU->,-1,-65,2049,2050,
19958,1465,1078,1097,1513,49500,70851,110451,49500,,IMU->,-3,-72,2048,2049,
19989,1470,1056,983,1519,49500,70851,110451,49500,,IMU->,-4,-78,2051,2052,
19989,1464,1036,930,1516,49500,70851,110451,49500,,IMU->,-2,-71,2050,2051,
19989,1462,1023,946,1514,49500,70851,110451,49500,,IMU->,-1,-73,2052,2053,
19958,1459,1057,997,1523,49500,70851,110451,49500,,IMU->,-6,-71,2049,2050,
20324,1465,1072,1060,1514,49500,70851,110451,49500,,IMU->,-3,-73,2051,2052,
19989,1473,1091,1117,1524,49500,70851,110451,49500,,IMU->,-4,-72,2052,2053,
19989,1471,1127,1195,1518,49500,70851,110451,49500,,IMU->,0,-70,2049,2050,
19958,1466,1124,1251,1509,49500,70851,110451,49500,,IMU->,-1,-72,2054,2055,
19989,1457,1134,1271,1515,49500,70851,110451,49500,,IMU->,-1,-72,2048,2049,
19958,1463,1138,1276,1509,49500,70851,110451,49500,,IMU->,-4,-68,2052,2053,
19989,1459,1130,1240,1513,49500,70851,110451,49500,,IMU->,-2,-71,2055,2056,
19958,1464,1118,1219,1521,49500,70851,110451,49500,,IMU->,-3,-74,2048,2049,
19958,1473,1111,1181,1520,49500,70851,110451,49500,,IMU->,0,-72,2049,2050,
19958,1463,1098,1103,1520,49500,70851,110451,49500,,IMU->,-3,-71,2049,2050,
19989,1461,1071,1056,1507,49500,70851,110451,49500,,IMU->,0,-72,2048,2049,
19958,1455,1057,1021,1511,49500,70851,110451,49500,,IMU->,0,-71,2047,2048,
20324,1467,1049,967,1505,49500,70851,110451,49500,,IMU->,-1,-71,2051,2052,
19989,1467,1030,945,1510,49500,70851,110451,49500,,IMU->,-2,-72,2048,2049,
19958,1465,1031,899,1519,49500,70851,110451,49500,,IMU->,-1,-75,2050,2051,
19989,1467,1031,883,1518,49500,70851,110451,49500,,IMU->,-6,-73,2049,2050,
19958,1469,1025,861,1519,49500,70851,110451,49500,,IMU->,-2,-70,2049,2050,
19989,1463,1018,852,1515,49500,70851,110451,49500,,IMU->,-3,-72,2052,2053,
19989,1465,1006,835,1517,49500,70851,110451,49500,,IMU->,-4,-70,2047,2048,
19989,1459,1014,819,1514,49500,70851,110451,49500,,IMU->,-2,-73,2048,2049,
19958,1460,1019,842,1505,49500,70851,110451,49500,,IMU->,-2,-70,2050,2051,
19958,1473,1033,855,1524,49500,70851,110451,49500,,IMU->,0,-69,2048,2049,
19958,1472,1033,856,1523,49500,70851,110451,49500,,IMU->,-7,-77,2047,2048,
19989,1472,1033,872,1519,49500,70851,110451,49500,,IMU->,-1,-72,2050,2051,
19989,1463,1050,908,1520,49500,70851,110451,49500,,IMU->,-2,-69,2048,2049,
19958,1458,1055,919,1508,49500,70851,110451,49500,,IMU->,0,-73,2051,2052,
20324,1468,1061,935,1514,49500,70851,110451,49500,,IMU->,0,-75,2051,2052,
19958,1469,1077,1008,1517,49500,70851,110451,49500,,IMU->,-1,-71,2049,2050,
19989,1469,1132,1247,1516,49500,70851,110451,49500,,IMU->,-2,-73,2045,2046,
19958,1462,1235,1575,1520,49500,70851,110451,49500,,IMU->,1,-68,2053,2054,
19958,1471,1356,1980,1514,49500,70851,110451,49500,,IMU->,0,-70,2052,2053,
19958,1467,1451,2248,1521,49500,70851,110451,49500,,IMU->,-3,-72,2049,2050,
19958,1474,1505,2419,1524,49500,70851,110451,49500,,IMU->,-1,-70,2050,2051,
19958,1476,1526,2465,1526,49500,70851,110451,49500,,IMU->,-1,-68,2053,2054,
19989,1473,1530,2422,1534,49500,70851,110451,49500,,IMU->,1,-74,2050,2051,
19958,1470,1503,2349,1530,49500,70851,110451,49500,,IMU->,-4,-75,2051,2052,
20324,1490,1480,2244,1537,49500,70851,110451,49500,,IMU->,-1,-74,2050,2051,
19989,1482,1459,2167,1538,49500,70851,110451,49500,,IMU->,0,-68,2046,2047,
19958,1495,1424,2071,1543,49500,70851,110451,49500,,IMU->,-1,-71,2052,2053,
19958,1492,1404,1945,1559,49500,70851,110451,49500,,IMU->,-2,-71,2051,2052,
19989,1513,1384,1868,1563,49500,70851,110451,49500,,IMU->,0,-67,2049,2050,
19958,1518,1364,1816,1564,49500,70851,110451,49500,,IMU->,-1,-76,2049,2050,
19989,1507,1371,1824,1567,49500,70851,110451,49500,,IMU->,-3,-69,2048,2049,
19989,1525,1389,1894,1589,49500,70851,110451,49500,,IMU->,0,-76,2053,2054,
19958,1546,1440,1986,1614,49500,70851,110451,49500,,IMU->,0,-69,2050,2051,
19958,1561,1469,2081,1622,49500,70851,110451,49500,,IMU->,-4,-68,2045,2046,
19958,1575,1511,2163,1638,49500,70851,110451,49500,,IMU->,-4,-71,2046,2047,
19989,1589,1530,2222,1644,49500,70851,110451,49500,,IMU->,-6,-71,2051,2052,
20355,1593,1551,2280,1645,49500,70851,110451,49500,,IMU->,-2,-75,2049,2050,
19958,1598,1575,2308,1660,49500,70851,110451,49500,,IMU->,0,-63,2046,2046,
19958,1613,1583,2318,1661,49500,70851,110451,49500,,IMU->,0,-68,2045,2046,
19958,1622,1581,2273,1671,49500,70851,110451,49500,,IMU->,-1,-69,2046,2047,
19958,1623,1573,2208,1680,49500,70851,110451,49500,,IMU->,-1,-70,2053,2054,
19989,1630,1556,2181,1704,49500,70851,110451,49500,,IMU->,-3,-72,2049,2050,
19989,1659,1574,2164,1722,49500,70851,110451,49500,,IMU->,-1,-74,2048,2049,
19989,1673,1577,2134,1722,49500,70851,110451,49500,,IMU->,0,-68,2046,2047,
19958,1682,1562,2078,1729,49500,70851,110451,49500,,IMU->,4,-68,2047,2048,
19958,1679,1554,2042,1725,49500,70851,110451,49500,,IMU->,1,-70,2051,2052,
19958,1671,1530,2014,1722,49500,70851,110451,49500,,IMU->,1,-67,2042,2043,
20324,1671,1520,1959,1704,49500,70851,110451,49500,,IMU->,3,-69,2051,2052,
19958,1652,1486,1903,1665,49500,70851,110451,49500,,IMU->,-5,-71,2054,2055,
19958,1611,1443,1842,1629,49500,70851,110451,49500,,IMU->,-2,-73,2046,2047,
19989,1570,1403,1793,1592,49500,70917,110484,49500,,IMU->,-3,-74,2046,2047,
19958,1540,1503,1755,1565,49500,70917,110484,49500,,IMU->,-5,-67,2051,2052,
19958,1507,1489,1708,1547,49500,70917,110484,49500,,IMU->,-2,-72,2049,2050,
19989,1495,1470,1697,1529,49500,70917,110484,49500,,IMU->,-5,-77,2049,2050,
19958,1483,1462,1691,1527,49500,70917,110484,49500,,IMU->,-6,-75,2042,2043,
19989,1476,1467,1674,1524,49500,70917,110484,49500,,IMU->,-3,-65,2051,2052,
19958,1469,1465,1686,1518,49500,70917,110484,49500,,IMU->,-1,-67,2053,2054,
19958,1456,1467,1677,1520,49500,70917,110484,49500,,IMU->,1,-77,2045,2046,
20324,1466,1478,1713,1512,49500,70917,110484,49500,,IMU->,8,-70,2047,2048,
19958,1472,1502,1820,1517,49500,70917,110484,49500,,IMU->,1,-71,2051,2052,
19958,1466,1572,2084,1517,49500,70917,110484,49500,,IMU->,-5,-70,2049,2050,
19958,1473,1670,2463,1521,49500,70917,110484,49500,,IMU->,-4,-73,2047,2048,
19989,1469,1787,2787,1522,49500,70917,110484,49500,,IMU->,-5,-78,2045,2046,
19989,1463,1850,2965,1513,49500,70917,110484,49500,,IMU->,-1,-67,2049,2050,
19989,1472,1884,2980,1518,49500,70917,110484,49500,,IMU->,-1,-63,2048,2048,
19958,1469,1885,2974,1513,49500,70917,110484,49500,,IMU->,-1,-68,2054,2055,
19989,1464,1843,2964,1518,49500,70917,110484,49500,,IMU->,-2,-71,2051,2052,
19958,1476,1829,2869,1527,49500,70917,110484,49500,,IMU->,-2,-71,2047,2048,
19958,1464,1785,2737,1508,49500,70917,110484,49500,,IMU->,0,-72,2047,2048,
20324,1474,1746,2613,1520,49500,70917,110484,49500,,IMU->,-2,-68,2050,2051,
19989,1470,1713,2486,1521,49500,70917,110484,49500,,IMU->,0,-70,2044,2045,
19958,1463,1663,2379,1509,49500,70917,110484,49500,,IMU->,4,-69,2049,2050,
19958,1466,1645,2316,1520,49500,70917,110484,49500,,IMU->,-4,-72,2052,2053,
19989,1469,1647,2315,1509,49500,70917,110484,49500,,IMU->,-2,-74,2053,2054,
19958,1468,1646,2334,1514,49500,70917,110484,49500,,IMU->,2,-67,2047,2048,
19958,1467,1671,2378,1513,49500,70917,110484,49500,,IMU->,-2,-76,2048,2049,
19989,1464,1675,2446,1510,49500,70917,110484,49500,,IMU->,-3,-74,2051,2052,
19989,1458,1697,2514,1519,49500,70917,110484,49500,,IMU->,0,-69,2051,2052,
19958,1467,1723,2601,1515,49500,70917,110484,49500,,IMU->,-1,-69,2047,2048,
19958,1464,1733,2627,1511,49500,70917,110484,49500,,IMU->,0,-73,2049,2050,
20324,1465,1743,2633,1525,49500,70917,110484,49500,,IMU->,-6,-75,2050,2051,
19989,1480,1745,2638,1517,49500,70917,110484,49500,,IMU->,-5,-68,2048,2049,
19958,1465,1731,2600,1516,49500,70917,110484,49500,,IMU->,-2,-70,2044,2045,
19989,1470,1725,2564,1517,49500,70917,110484,49500,,IMU->,0,-69,2052,2053,
19958,1480,1711,2508,1515,49500,70917,110484,49500,,IMU->,0,-71,2050,2051,
19958,1461,1700,2475,1521,49500,70917,110484,49500,,IMU->,0,-74,2051,2052,
19958,1478,1692,2444,1522,49500,70917,110484,49500,,IMU->,5,-67,2049,2050,
19958,1474,1680,2395,1513,49500,70917,110484,49500,,IMU->,4,-68,2049,2050,
19958,1460,1651,2348,1510,49500,70917,110484,49500,,IMU->,0,-69,2047,2048,
19958,1462,1643,2311,1517,49500,70917,110484,49500,,IMU->,-2,-77,2048,2049,
19989,1476,1635,2270,1517,49500,70917,110484,49500,,IMU->,0,-69,2049,2050,
20324,1464,1618,2259,1514,49500,70917,110484,49500,,IMU->,-2,-67,2050,2051,
19958,1468,1623,2246,1523,49500,70917,110484,49500,,IMU->,-4,-74,2046,2047,
19989,1473,1626,2239,1516,49500,70917,110484,49500,,IMU->,-4,-74,2049,2050,
19958,1479,1625,2241,1521,49500,70917,110484,49500,,IMU->,-2,-62,2050,2050,
19989,1470,1629,2229,1523,49500,70917,110484,49500,,IMU->,0,-68,2051,2052,
19958,1459,1619,2242,1508,49500,70917,110484,49500,,IMU->,3,-69,2046,2047,
19958,1463,1616,2222,1513,49500,70917,110484,49500,,IMU->,0,-74,2048,2049,
19958,1461,1623,2226,1500,49500,70917,110484,49500,,IMU->,1,-74,2052,2053,
19958,1460,1611,2217,1518,49500,70917,110484,49500,,IMU->,3,-73,2048,2049,
19958,1463,1628,2234,1528,49500,70917,110484,49500,,IMU->,2,-67,2048,2049,
20324,1478,1628,2254,1513,49500,70917,110484,49500,,IMU->,0,-69,2049,2050,
19958,1463,1649,2374,1522,49500,70917,110484,49500,,IMU->,3,-66,2051,2052,
19958,1472,1723,2606,1516,49500,70917,110484,49500,,IMU->,0,-73,2048,2049,
19958,1470,1810,2930,1515,49500,70917,110484,49500,,IMU->,-2,-73,2055,2056,
19958,1463,1893,2977,1524,49500,70917,110484,49500,,IMU->,-3,-69,2044,2045,
19989,1481,1956,2977,1527,49500,70917,110484,49500,,IMU->,-1,-67,2050,2051,
19958,1478,1982,2977,1526,49500,70917,110484,49500,,IMU->,-3,-69,2056,2057,
19989,1471,1972,2976,1525,49500,70917,110484,49500,,IMU->,0,-75,2052,2053,
19958,1476,1957,2976,1523,49500,70917,110484,49500,,IMU->,1,-69,2050,2051,
19958,1456,1924,2981,1517,49500,70917,110484,49500,,IMU->,1,-69,2049,2050,
20324,1474,1878,2980,1521,49500,70917,110484,49500,,IMU->,1,-74,2049,2050,
19958,1476,1837,2920,1524,49500,70917,110484,49500,,IMU->,-1,-74,2049,2050,
19989,1467,1800,2780,1518,49500,70917,110484,49500,,IMU->,-1,-73,2050,2051,
19989,1480,1755,2660,1522,49500,70917,110484,49500,,IMU->,-2,-72,2049,2050,
19958,1467,1726,2594,1518,49500,70917,110484,49500,,IMU->,2,-65,2052,2053,
19958,1472,1715,2577,1514,49500,70917,110484,49500,,IMU->,-5,-73,2049,2050,
19989,1469,1725,2582,1516,49500,70917,110484,49500,,IMU->,2,-69,2050,2051,
19958,1459,1734,2637,1507,49500,70917,110484,49500,,IMU->,-1,-68,2048,2049,
19958,1468,1756,2702,1524,49500,70917,110484,49500,,IMU->,-2,-69,2048,2049,
19989,1474,1783,2760,1528,49500,70917,110484,49500,,IMU->,-5,-72,2054,2055,
19958,1464,1777,2804,1513,49500,70917,110484,49500,,IMU->,-1,-72,2046,2047,
19989,1461,1781,2805,1522,49500,70917,110484,49500,,IMU->,-1,-68,2049,2050,
20324,1468,1778,2777,1505,49500,70917,110484,49500,,IMU->,0,-72,2048,2049,
19958,1468,1758,2755,1513,49500,70917,110484,49500,,IMU->,0,-73,2048,2049,
19958,1473,1754,2688,1525,49500,70917,110484,49500,,IMU->,0,-73,2050,2051,
19958,1476,1729,2636,1517,49500,70917,110484,49500,,IMU->,-1,-71,2051,2052,
19958,1471,1714,2565,1519,49500,70917,110484,49500,,IMU->,1,-68,2051,2052,
19958,1466,1692,2503,1513,49500,70917,110484,49500,,IMU->,-1,-74,2049,2050,
19989,1463,1669,2442,1507,49500,70917,110484,49500,,IMU->,0,-74,2047,2048,
19958,1455,1645,2386,1515,49500,70917,110484,49500,,IMU->,0,-70,2048,2049,
19958,1460,1637,2352,1514,49500,70917,110484,49500,,IMU->,-1,-71,2053,2054,
19989,1469,1632,2325,1520,49500,70917,110484,49500,,IMU->,0,-70,2048,2049,
20324,1470,1628,2305,1515,49500,70917,110484,49500,,IMU->,-1,-76,2046,2047,
19958,1479,1620,2264,1516,49500,70917,110484,49500,,IMU->,-2,-71,2046,2047,
19989,1468,1610,2226,1519,49500,70917,110484,49500,,IMU->,-2,-75,2052,2053,
19958,1467,1587,2206,1510,49500,70917,110484,49500,,IMU->,0,-70,2049,2050,
19958,1462,1588,2194,1511,49500,70917,110484,49500,,IMU->,-1,-71,2048,2049,
19989,1456,1590,2190,1504,49500,70917,110484,49500,,IMU->,-2,-70,2046,2047,
19958,1467,1585,2192,1514,49500,70917,110484,49500,,IMU->,-3,-72,2049,2050,
19989,1465,1603,2204,1518,49500,70917,110484,49500,,IMU->,-2,-72,2049,2050,
19958,1465,1610,2291,1513,49500,70917,110484,49500,,IMU->,-3,-71,2047,2048,
19989,1462,1677,2514,1520,49500,70917,110484,49500,,IMU->,0,-71,2048,2049,
19958,1450,1758,2829,1511,49500,70917,110484,49500,,IMU->,0,-74,2050,2051,
20324,1469,1870,2968,1516,49500,70917,110484,49500,,IMU->,-5,-74,2051,2052,
19958,1476,1948,2976,1527,49500,70917,110484,49500,,IMU->,-2,-70,2047,2048,
19989,1474,1971,2977,1518,49500,70917,110484,49500,,IMU->,-2,-67,2049,2050,
19958,1474,1990,2981,1534,49500,70917,110484,49500,,IMU->,0,-70,2053,2054,
19958,1477,1977,2979,1520,49500,70917,110484,49500,,IMU->,0,-71,2044,2045,
19958,1472,1949,2978,1513,49500,70917,110484,49500,,IMU->,-1,-68,2049,2050,
19989,1468,1904,2980,1521,49500,70917,110484,49500,,IMU->,3,-70,2048,2049,
19958,1468,1856,2975,1513,49500,70917,110484,49500,,IMU->,0,-71,2053,2054,
19958,1462,1826,2949,1524,49500,70917,110484,49500,,IMU->,0,-71,2052,2053,
19958,1463,1786,2837,1512,49500,70917,110484,49500,,IMU->,0,-73,2047,2048,
20324,1469,1747,2744,1514,49500,70917,110484,49500,,IMU->,0,-72,2045,2046,
19958,1474,1741,2688,1521,49500,70917,110484,49500,,IMU->,-1,-70,2055,2056,
19989,1466,1721,2693,1508,49500,70917,110484,49500,,IMU->,1,-71,2047,2048,
19958,1468,1732,2725,1517,49500,70917,110484,49500,,IMU->,2,-70,2050,2051,
19958,1469,1761,2782,1516,49500,70917,110484,49500,,IMU->,-2,-70,2049,2050,
19989,1475,1779,2864,1511,49500,70917,110484,49500,,IMU->,-2,-73,2052,2053,
19989,1463,1799,2916,1523,49500,70917,110484,49500,,IMU->,-3,-71,2051,2052,
19958,1469,1809,2955,1517,49500,70917,110484,49500,,IMU->,-3,-72,2044,2045,
19958,1465,1810,2944,1515,49500,70917,110484,49500,,IMU->,0,-72,2050,2051,
19958,1468,1794,2914,1510,49500,70917,110484,49500,,IMU->,-1,-74,2048,2049,
19989,1471,1779,2872,1512,49500,70917,110484,49500,,IMU->,-1,-74,2051,2052,
19989,1476,1770,2801,1525,49500,70917,110484,49500,,IMU->,0,-67,2049,2050,
20324,1473,1739,2743,1514,49500,70917,110484,49500,,IMU->,0,-76,2053,2054,
19958,1469,1721,2668,1517,49500,70917,110484,49500,,IMU->,2,-70,2050,2051,
19958,1463,1709,2595,1511,49500,70917,110484,49500,,IMU->,1,-73,2047,2048,
19958,1463,1672,2533,1510,49500,70917,110484,49500,,IMU->,0,-71,2048,2049,
19958,1463,1657,2449,1515,49500,70917,110484,49500,,IMU->,-5,-74,2053,2054,
19989,1464,1636,2412,1509,49500,70917,110484,49500,,IMU->,0,-71,2051,2052,
19958,1467,1622,2387,1514,49500,70917,110484,49500,,IMU->,-2,-71,2046,2047,
19958,1458,1616,2353,1510,49500,70917,110484,49500,,IMU->,1,-70,2046,2047,
19958,1460,1613,2325,1515,49500,70917,110484,49500,,IMU->,-4,-70,2049,2050,
19989,1465,1609,2298,1517,49500,70917,110484,49500,,IMU->,0,-68,2051,2052,
