19775,1521,1126,1108,1569,49500,72204,107184,49500,18829,1740,1512,1868,1808,49500,65406,97878,49500,,IMU->,4,-87,2048,2049,
21209,1748,1494,1768,1787,49500,65406,97878,49500,,IMU->,8,-86,2049,2050,
19958,1744,1453,1662,1783,49500,65406,97878,49500,,IMU->,7,-89,2047,2048,
19958,1736,1436,1548,1790,49500,65406,97878,49500,,IMU->,6,-89,2048,2049,
20324,1740,1396,1446,1784,49500,65406,97878,49500,,IMU->,6,-89,2051,2052,
19927,1747,1376,1382,1791,49500,65406,97878,49500,,IMU->,4,-90,2053,2054,
19958,1745,1368,1306,1787,49500,65406,97878,49500,,IMU->,7,-86,2047,2048,
19958,1743,1342,1252,1787,49500,65406,97878,49500,,IMU->,2,-87,2050,2051,
19958,1754,1330,1202,1798,49500,65406,97878,49500,,IMU->,4,-88,2054,2055,
19958,1740,1320,1166,1783,49500,65406,97878,49500,,IMU->,4,-90,2049,2050,
19958,1738,1308,1150,1793,49500,65406,97878,49500,,IMU->,5,-90,2048,2049,
19958,1735,1310,1137,1789,49500,65406,97878,49500,,IMU->,7,-88,2050,2051,
20324,1744,1307,1115,1789,49500,65406,97878,49500,,IMU->,8,-87,2050,2051,
19927,1750,1304,1115,1802,49500,65406,97878,49500,,IMU->,7,-87,2048,2049,
19958,1749,1306,1101,1797,49500,65406,97878,49500,,IMU->,4,-88,2046,2047,
19958,1747,1301,1091,1792,49500,65406,97878,49500,,IMU->,5,-89,2049,2050,
19958,1741,1299,1075,1793,49500,65406,97878,49500,,IMU->,6,-86,2047,2048,
19958,1750,1294,1062,1792,49500,65406,97878,49500,,IMU->,3,-88,2048,2049,
19958,1746,1288,1038,1795,49500,65406,97878,49500,,IMU->,4,-88,2050,2051,
20324,1752,1288,1024,1793,49500,65406,97878,49500,,IMU->,5,-88,2050,2051,
19958,1754,1281,1003,1798,49500,65406,97878,49500,,IMU->,7,-86,2050,2051,
19927,1749,1268,957,1794,49500,65406,97878,49500,,IMU->,7,-88,2045,2046,
19958,1749,1257,918,1797,49500,65406,97878,49500,,IMU->,7,-88,2047,2048,
19958,1748,1246,869,1793,49500,65406,97878,49500,,IMU->,4,-84,2047,2048,
19958,1747,1234,847,1798,49500,65406,97878,49500,,IMU->,5,-86,2048,2049,
19958,1749,1241,832,1797,49500,65406,97878,49500,,IMU->,7,-89,2049,2050,
19958,1738,1251,909,1785,49500,65406,97878,49500,,IMU->,5,-88,2047,2048,
20324,1754,1339,1324,1792,49500,65406,97878,49500,,IMU->,6,-91,2049,2051,
19958,1753,1529,2092,1795,49500,65406,97878,49500,,IMU->,3,-90,2051,2052,
19927,1741,1706,2782,1797,49500,65406,97878,49500,,IMU->,3,-86,2046,2047,
19958,1748,1843,2977,1811,49500,65406,97878,49500,,IMU->,4,-86,2050,2051,
19958,1757,1922,2976,1793,49500,65406,97878,49500,,IMU->,6,-85,2049,2050,
19958,1753,1928,2976,1796,49500,65406,97878,49500,,IMU->,4,-83,2048,2049,
19958,1754,1916,2978,1807,49500,65406,97878,49500,,IMU->,4,-85,2046,2047,
19958,1754,1861,2977,1792,49500,65406,97878,49500,,IMU->,5,-87,2048,2049,
20324,1749,1790,2901,1794,49500,65406,97878,49500,,IMU->,5,-88,2049,2050,
19958,1748,1729,2640,1795,49500,65406,97878,49500,,IMU->,6,-85,2046,2047,
19927,1753,1657,2382,1788,49500,65406,97878,49500,,IMU->,6,-84,2051,2052,
19958,1750,1593,2126,1800,49500,65406,97878,49500,,IMU->,10,-88,2044,2045,
19989,1754,1543,1948,1799,49500,65406,97878,49500,,IMU->,6,-89,2049,2050,
19958,1752,1518,1882,1799,49500,65406,97878,49500,,IMU->,8,-84,2048,2049,
19958,1751,1529,1931,1796,49500,65406,97878,49500,,IMU->,3,-87,2050,2051,
19958,1746,1555,2042,1792,49500,65406,97878,49500,,IMU->,4,-85,2048,2049,
19958,1746,1588,2208,1796,49500,65406,97878,49500,,IMU->,3,-86,2053,2054,
20324,1747,1637,2349,1796,49500,65406,97878,49500,,IMU->,4,-85,2051,2052,
19958,1753,1662,2438,1795,49500,65406,97878,49500,,IMU->,2,-87,2047,2048,
19927,1745,1680,2472,1796,49500,65406,97878,49500,,IMU->,5,-89,2048,2049,
19958,1751,1669,2418,1801,49500,65406,97878,49500,,IMU->,4,-86,2052,2053,
19958,1752,1646,2335,1796,49500,65406,97878,49500,,IMU->,4,-88,2049,2050,
19958,1744,1607,2207,1794,49500,65406,97878,49500,,IMU->,6,-90,2052,2053,
19958,1743,1580,2077,1804,49500,65406,97878,49500,,IMU->,6,-86,2050,2051,
20324,1744,1544,1946,1792,49500,65406,97878,49500,,IMU->,4,-84,2047,2048,
19958,1757,1513,1845,1800,49500,65406,97878,49500,,IMU->,3,-85,2046,2047,
19958,1757,1489,1743,1805,49500,65406,97878,49500,,IMU->,6,-85,2047,2048,
19927,1751,1466,1669,1795,49500,65406,97878,49500,,IMU->,5,-88,2049,2050,
19958,1756,1451,1595,1796,49500,65406,97878,49500,,IMU->,4,-85,2047,2048,
19958,1748,1438,1546,1794,49500,65406,97878,49500,,IMU->,4,-90,2048,2049,
19958,1747,1415,1510,1793,49500,65406,97878,49500,,IMU->,7,-89,2046,2047,
19958,1745,1420,1475,1797,49500,65406,97878,49500,,IMU->,4,-83,2049,2050,
19989,1750,1413,1451,1793,49500,65142,97482,49500,,IMU->,4,-89,2048,2049,
20324,1753,1111,1009,1794,49500,65142,97482,49500,,IMU->,7,-85,2047,2048,
19958,1753,1121,1012,1794,49500,65142,97482,49500,,IMU->,4,-85,2047,2048,
19927,1752,1116,999,1790,49500,65142,97482,49500,,IMU->,4,-87,2049,2050,
19958,1750,1118,990,1796,49500,65142,97482,49500,,IMU->,3,-87,2046,2047,
19958,1744,1106,972,1793,49500,65142,97482,49500,,IMU->,6,-88,2051,2052,
19958,1745,1101,967,1794,49500,65142,97482,49500,,IMU->,5,-87,2051,2052,
19958,1747,1110,949,1803,49500,65142,97482,49500,,IMU->,6,-85,2052,2053,
19958,1746,1094,908,1793,49500,65142,97482,49500,,IMU->,5,-89,2047,2048,
20324,1752,1081,867,1796,49500,65142,97482,49500,,IMU->,2,-88,2052,2053,
19958,1753,1069,835,1793,49500,65142,97482,49500,,IMU->,1,-86,2051,2052,
19927,1755,1059,777,1793,49500,65142,97482,49500,,IMU->,3,-90,2052,2053,
19958,1745,1047,728,1794,49500,65142,97482,49500,,IMU->,3,-89,2046,2047,
19958,1748,1034,685,1795,49500,65142,97482,49500,,IMU->,3,-88,2052,2053,
19958,1746,1019,622,1793,49500,65142,97482,49500,,IMU->,2,-90,2049,2050,
19958,1742,1008,571,1797,49500,65142,97482,49500,,IMU->,5,-85,2050,2051,
20324,1753,1006,555,1797,49500,65142,97482,49500,,IMU->,5,-89,2046,2047,
19958,1744,1021,657,1790,49500,65142,97482,49500,,IMU->,7,-86,2048,2049,
19958,1744,1118,1096,1787,49500,65142,97482,49500,,IMU->,2,-92,2049,2051,
19927,1749,1310,1859,1792,49500,65142,97482,49500,,IMU->,4,-89,2050,2051,
19958,1743,1493,2544,1789,49500,65142,97482,49500,,IMU->,3,-89,2050,2051,
19958,1744,1616,2971,1788,49500,65142,97482,49500,,IMU->,5,-87,2051,2052,
19958,1743,1678,2977,1793,49500,65142,97482,49500,,IMU->,5,-85,2048,2049,
19958,1751,1691,2974,1800,49500,65142,97482,49500,,IMU->,7,-90,2049,2050,
20324,1757,1661,2974,1801,49500,65142,97482,49500,,IMU->,6,-87,2050,2051,
19958,1755,1602,2810,1794,49500,65142,97482,49500,,IMU->,4,-84,2050,2051,
19958,1755,1531,2514,1798,49500,65142,97482,49500,,IMU->,6,-88,2049,2050,
19927,1752,1458,2218,1793,49500,65142,97482,49500,,IMU->,7,-88,2049,2050,
19958,1749,1387,1932,1794,49500,65142,97482,49500,,IMU->,8,-90,2048,2049,
19958,1748,1314,1664,1802,49500,65142,97482,49500,,IMU->,6,-86,2044,2045,
19958,1750,1276,1506,1798,49500,65142,97482,49500,,IMU->,7,-82,2047,2048,
19958,1749,1238,1457,1802,49500,65142,97482,49500,,IMU->,4,-86,2047,2048,
20324,1747,1257,1509,1793,49500,65142,97482,49500,,IMU->,6,-88,2046,2047,
19927,1745,1289,1661,1792,49500,65142,97482,49500,,IMU->,5,-88,2049,2050,
19927,1747,1330,1844,1792,49500,65142,97482,49500,,IMU->,5,-86,2048,2049,
19958,1745,1381,1995,1797,49500,65142,97482,49500,,IMU->,2,-89,2046,2047,
19958,1750,1407,2102,1800,49500,65142,97482,49500,,IMU->,4,-88,2053,2054,
19958,1752,1427,2118,1802,49500,65142,97482,49500,,IMU->,7,-86,2049,2050,
19958,1752,1418,2086,1796,49500,65142,97482,49500,,IMU->,5,-83,2048,2049,
20324,1750,1392,1972,1800,49500,65142,97482,49500,,IMU->,1,-91,2048,2050,
19958,1747,1362,1857,1795,49500,65142,97482,49500,,IMU->,5,-88,2048,2049,
19989,1746,1326,1721,1788,49500,65142,97482,49500,,IMU->,3,-88,2046,2047,
19958,1745,1300,1598,1795,49500,65142,97482,49500,,IMU->,2,-84,2049,2050,
19927,1754,1271,1483,1788,49500,65142,97482,49500,,IMU->,4,-87,2048,2049,
19958,1751,1241,1370,1801,49500,65142,97482,49500,,IMU->,3,-86,2049,2050,
19958,1747,1214,1285,1799,49500,65142,97482,49500,,IMU->,7,-86,2049,2050,
19958,1745,1194,1193,1797,49500,65142,97482,49500,,IMU->,8,-84,2044,2045,
19958,1746,1170,1127,1791,49500,65142,97482,49500,,IMU->,6,-89,2050,2051,
20324,1750,1159,1078,1788,49500,65142,97482,49500,,IMU->,4,-85,2047,2048,
19989,1752,1148,1035,1793,49500,65142,97482,49500,,IMU->,4,-86,2052,2053,
19958,1747,1140,1019,1796,49500,65142,97482,49500,,IMU->,5,-86,2051,2052,
19958,1751,1135,1017,1794,49500,65142,97482,49500,,IMU->,5,-85,2050,2051,
19958,1746,1135,1003,1785,49500,65142,97482,49500,,IMU->,5,-85,2046,2047,
19958,1744,1128,1007,1785,49500,65142,97482,49500,,IMU->,5,-86,2046,2047,
19958,1742,1131,987,1789,49500,65142,97482,49500,,IMU->,4,-89,2048,2049,
19958,1738,1129,971,1791,49500,65142,97482,49500,,IMU->,3,-88,2050,2051,
19958,1741,1123,960,1793,49500,65142,97482,49500,,IMU->,6,-86,2049,2050,
20324,1746,1120,921,1796,49500,65142,97482,49500,,IMU->,3,-91,2048,2050,
19958,1749,1110,890,1791,49500,65142,97482,49500,,IMU->,5,-86,2048,2049,
19958,1752,1100,835,1796,49500,65142,97482,49500,,IMU->,6,-87,2048,2049,
19927,1742,1089,789,1787,49500,65142,97482,49500,,IMU->,5,-87,2052,2053,
19958,1748,1072,743,1800,49500,65142,97482,49500,,IMU->,6,-88,2052,2053,
19958,1750,1068,695,1798,49500,65142,97482,49500,,IMU->,3,-91,2051,2053,
19958,1748,1046,645,1794,49500,65142,97482,49500,,IMU->,3,-84,2046,2047,
20324,1757,1039,612,1801,49500,65142,97482,49500,,IMU->,5,-87,2048,2049,
19958,1755,1030,571,1796,49500,65142,97482,49500,,IMU->,3,-88,2048,2049,
19958,1749,1007,517,1795,49500,65142,97482,49500,,IMU->,2,-88,2049,2050,
19958,1744,998,480,1792,49500,65142,97482,49500,,IMU->,8,-84,2048,2049,
19927,1748,994,453,1783,49500,65142,97482,49500,,IMU->,4,-90,2047,2048,
19958,1746,988,449,1795,49500,65142,97482,49500,,IMU->,6,-87,2045,2046,
19958,1746,1011,556,1796,49500,65142,97482,49500,,IMU->,6,-90,2049,2050,
19958,1744,1108,1006,1797,49500,65142,97482,49500,,IMU->,3,-84,2051,2052,
20324,1742,1310,1781,1791,49500,65142,97482,49500,,IMU->,4,-89,2050,2051,
19958,1748,1486,2460,1791,49500,65142,97482,49500,,IMU->,3,-86,2046,2047,
19958,1749,1603,2859,1800,49500,65142,97482,49500,,IMU->,4,-89,2047,2048,
19958,1752,1662,2978,1800,49500,65142,97482,49500,,IMU->,2,-85,2048,2049,
19927,1756,1668,2975,1798,49500,65142,97482,49500,,IMU->,5,-85,2047,2048,
19958,1744,1629,2811,1801,49500,65142,97482,49500,,IMU->,5,-88,2049,2050,
19958,1758,1554,2510,1809,49500,65142,97482,49500,,IMU->,5,-91,2046,2048,
19958,1757,1474,2176,1806,49500,65142,97482,49500,,IMU->,3,-84,2049,2050,
20324,1746,1380,1851,1791,49500,65142,97482,49500,,IMU->,5,-87,2051,2052,
19958,1751,1299,1560,1796,49500,65142,97482,49500,,IMU->,5,-87,2048,2049,
19958,1749,1234,1307,1791,49500,65142,97482,49500,,IMU->,4,-85,2051,2052,
19958,1743,1180,1163,1786,49500,65142,97482,49500,,IMU->,6,-87,2050,2051,
19927,1747,1172,1131,1796,49500,65142,97482,49500,,IMU->,3,-84,2047,2048,
19958,1745,1186,1181,1789,49500,65142,97482,49500,,IMU->,2,-90,2048,2049,
19958,1742,1208,1352,1792,49500,65142,97482,49500,,IMU->,2,-87,2049,2050,
19958,1743,1268,1571,1796,49500,65142,97482,49500,,IMU->,7,-84,2050,2051,
20324,1747,1334,1766,1793,49500,65142,97482,49500,,IMU->,5,-88,2048,2049,
19958,1749,1365,1877,1798,49500,65142,97482,49500,,IMU->,7,-88,2050,2051,
19958,1755,1383,1899,1798,49500,65142,97482,49500,,IMU->,6,-88,2049,2050,
19958,1752,1366,1839,1794,49500,65142,97482,49500,,IMU->,9,-86,2047,2048,
19927,1751,1345,1731,1799,49500,65142,97482,49500,,IMU->,4,-85,2051,2052,
19958,1744,1313,1605,1787,49500,65142,97482,49500,,IMU->,4,-90,2052,2053,
19958,1738,1275,1465,1790,49500,65142,97482,49500,,IMU->,4,-88,2046,2047,
19958,1734,1245,1341,1795,49500,65142,97482,49500,,IMU->,8,-86,2049,2050,
20324,1756,1212,1220,1789,49500,65142,97482,49500,,IMU->,3,-87,2049,2050,
19958,1748,1183,1129,1796,49500,65142,97482,49500,,IMU->,3,-85,2049,2050,
19958,1749,1162,1041,1794,49500,65142,97482,49500,,IMU->,4,-84,2050,2051,
19958,1745,1140,961,1791,49500,65142,97482,49500,,IMU->,5,-85,2050,2051,
19927,1740,1123,929,1792,49500,65142,97482,49500,,IMU->,3,-86,2051,2052,
19958,1748,1115,902,1790,49500,65142,97482,49500,,IMU->,2,-85,2050,2051,
19958,1736,1110,875,1787,49500,65142,97482,49500,,IMU->,6,-84,2048,2049,
20324,1747,1111,873,1787,49500,65142,97482,49500,,IMU->,2,-86,2048,2049,
19958,1752,1116,872,1794,49500,65142,97482,49500,,IMU->,5,-86,2046,2047,
19958,1741,1109,876,1791,49500,65142,97482,49500,,IMU->,1,-89,2047,2048,
19927,1749,1102,870,1795,49500,65142,97482,49500,,IMU->,5,-85,2047,2048,
19927,1743,1107,858,1787,49500,65142,97482,49500,,IMU->,0,-88,2051,2052,
19958,1740,1101,856,1788,49500,65142,97482,49500,,IMU->,3,-84,2049,2050,
19958,1742,1108,829,1798,49500,65142,97482,49500,,IMU->,6,-87,2044,2045,
20324,1744,1092,794,1789,49500,65142,97482,49500,,IMU->,5,-87,2050,2051,
19958,1750,1077,758,1794,49500,65142,97482,49500,,IMU->,8,-88,2050,2051,
19958,1749,1073,693,1796,49500,65142,97482,49500,,IMU->,5,-88,2050,2051,
19958,1749,1057,659,1783,49500,65142,97482,49500,,IMU->,4,-82,2043,2044,
19958,1742,1040,612,1786,49500,65142,97482,49500,,IMU->,5,-90,2045,2046,
19927,1740,1043,591,1785,49500,65142,97482,49500,,IMU->,8,-87,2043,2044,
19958,1742,1044,636,1785,49500,65142,97482,49500,,IMU->,7,-84,2049,2050,
19958,1736,1098,875,1791,49500,65142,97482,49500,,IMU->,4,-89,2047,2048,
20324,1742,1231,1423,1786,49500,65142,97482,49500,,IMU->,6,-90,2047,2048,
19958,1743,1379,2017,1792,49500,65142,97482,49500,,IMU->,6,-86,2049,2050,
19958,1745,1507,2440,1794,49500,65142,97482,49500,,IMU->,3,-84,2052,2053,
19958,1749,1568,2618,1785,49500,65142,97482,49500,,IMU->,5,-85,2045,2046,
19958,1736,1577,2602,1790,49500,65142,97482,49500,,IMU->,4,-88,2047,2048,
19927,1743,1546,2433,1790,49500,65142,97482,49500,,IMU->,5,-88,2046,2047,
19958,1748,1479,2155,1791,49500,65142,97482,49500,,IMU->,4,-90,2049,2050,
19958,1740,1392,1812,1791,49500,65142,97482,49500,,IMU->,3,-88,2051,2052,
20324,1752,1306,1473,1794,49500,65142,97482,49500,,IMU->,7,-86,2048,2049,
19958,1735,1218,1155,1783,49500,65142,97482,49500,,IMU->,5,-86,2049,2050,
19958,1742,1152,957,1784,49500,65142,97482,49500,,IMU->,6,-85,2047,2048,
19958,1743,1121,855,1791,49500,65142,97482,49500,,IMU->,6,-89,2046,2047,
19958,1740,1108,821,1786,49500,65142,97482,49500,,IMU->,5,-91,2047,2049,
19927,1738,1113,862,1767,49500,65142,97482,49500,,IMU->,3,-86,2049,2050,
19958,1735,1149,965,1775,49500,65142,97482,49500,,IMU->,2,-87,2050,2051,
19958,1737,1176,1159,1784,49500,65142,97482,49500,,IMU->,4,-87,2051,2052,
20324,1750,1230,1321,1790,49500,65142,97482,49500,,IMU->,10,-87,2045,2046,
19958,1730,1258,1456,1787,49500,65142,97482,49500,,IMU->,4,-87,2049,2050,
19958,1727,1268,1483,1791,49500,65142,97482,49500,,IMU->,7,-88,2047,2048,
19958,1738,1290,1440,1784,49500,65142,97482,49500,,IMU->,3,-84,2051,2052,
19958,1722,1268,1357,1759,49500,65142,97482,49500,,IMU->,3,-87,2047,2048,
19927,1736,1237,1242,1793,49500,65142,97482,49500,,IMU->,1,-87,2051,2052,
19958,1742,1206,1128,1785,49500,65142,97482,49500,,IMU->,3,-87,2051,2052,
19958,1724,1019,1030,1780,49500,65142,97482,49500,,IMU->,4,-86,2048,2049,
20324,1725,1160,917,1786,49500,65142,97482,49500,,IMU->,6,-88,2049,2050,
19958,1702,1138,850,1785,49500,65142,97482,49500,,IMU->,4,-88,2048,2049,
19958,1737,1106,758,1789,49500,65142,97482,49500,,IMU->,3,-89,2048,2049,
19927,1742,1100,710,1786,49500,65142,97482,49500,,IMU->,4,-88,2047,2048,
19927,1742,1086,679,1784,49500,65142,97482,49500,,IMU->,6,-85,2047,2048,
19958,1738,1070,631,1784,49500,65142,97482,49500,,IMU->,8,-86,2045,2046,
19958,1733,1061,619,1786,49500,65142,97482,49500,,IMU->,8,-84,2050,2051,
20324,1739,1055,590,1784,49500,65142,97482,49500,,IMU->,2,-87,2047,2048,
19958,1735,1057,594,1787,49500,65076,97317,49500,,IMU->,7,-87,2049,2050,
19958,1741,1051,442,1786,49500,65076,97317,49500,,IMU->,4,-89,2047,2048,
19958,1736,1053,437,1786,49500,65076,97317,49500,,IMU->,5,-88,2052,2053,
19958,1741,1051,424,1787,49500,65076,97317,49500,,IMU->,7,-86,2048,2049,
19927,1750,1045,403,1788,49500,65076,97317,49500,,IMU->,2,-88,2049,2050,
19958,1736,1032,359,1787,49500,65076,97317,49500,,IMU->,8,-90,2049,2050,
20324,1743,1023,341,1782,49500,65076,97317,49500,,IMU->,5,-88,2049,2050,
19958,1730,1022,307,1785,49500,65076,97317,49500,,IMU->,4,-87,2049,2050,
19958,1736,1017,309,1786,49500,65076,97317,49500,,IMU->,6,-83,2050,2051,
19958,1744,1045,441,1789,49500,65076,97317,49500,,IMU->,3,-88,2045,2046,
19958,1743,1139,891,1784,49500,65076,97317,49500,,IMU->,3,-86,2049,2050,
19958,1738,1319,1620,1781,49500,65076,97317,49500,,IMU->,6,-90,2051,2052,
19927,1739,1501,2246,1788,49500,65076,97317,49500,,IMU->,5,-87,2052,2053,
19958,1738,1602,2613,1785,49500,65076,97317,49500,,IMU->,5,-86,2047,2048,
20324,1738,1648,2736,1785,49500,65076,97317,49500,,IMU->,7,-87,2048,2049,
19958,1739,1651,2676,1789,49500,65076,97317,49500,,IMU->,4,-86,2050,2051,
19958,1739,1594,2445,1788,49500,65076,97317,49500,,IMU->,4,-89,2049,2050,
19958,1743,1531,2141,1790,49500,65076,97317,49500,,IMU->,2,-88,2048,2049,
19958,1746,1442,1815,1784,49500,65076,97317,49500,,IMU->,1,-88,2047,2048,
19958,1743,1344,1470,1789,49500,65076,97317,49500,,IMU->,4,-87,2052,2053,
19927,1738,1271,1177,1782,49500,65076,97317,49500,,IMU->,4,-88,2049,2050,
19958,1732,1204,971,1779,49500,65076,97317,49500,,IMU->,5,-89,2046,2047,
20324,1733,1177,836,1781,49500,65076,97317,49500,,IMU->,5,-89,2051,2052,
19958,1738,1155,812,1781,49500,65076,97317,49500,,IMU->,5,-85,2049,2050,
19958,1741,1157,846,1784,49500,65076,97317,49500,,IMU->,3,-89,2047,2048,
19958,1736,1187,967,1788,49500,65076,97317,49500,,IMU->,4,-88,2046,2047,
19958,1737,1233,1161,1777,49500,65076,97317,49500,,IMU->,3,-84,2051,2052,
19958,1734,1290,1339,1784,49500,65076,97317,49500,,IMU->,7,-90,2051,2052,
19927,1733,1327,1460,1782,49500,65076,97317,49500,,IMU->,5,-91,2044,2046,
19958,1734,1334,1476,1789,49500,65076,97317,49500,,IMU->,6,-87,2047,2048,
20324,1742,1331,1432,1784,49500,65076,97317,49500,,IMU->,4,-87,2049,2050,
19958,1742,1310,1345,1782,49500,65076,97317,49500,,IMU->,3,-86,2053,2054,
19958,1742,1287,1222,1784,49500,65076,97317,49500,,IMU->,5,-87,2046,2047,
19958,1729,1247,1102,1781,49500,65076,97317,49500,,IMU->,6,-88,2049,2050,
19927,1732,1212,977,1783,49500,65076,97317,49500,,IMU->,7,-89,2051,2052,
19927,1737,1192,869,1786,49500,65076,97317,49500,,IMU->,10,-87,2050,2051,
19989,1736,1159,783,1782,49500,65076,97317,49500,,IMU->,5,-86,2046,2047,
19958,1724,1142,697,1787,49500,65076,97317,49500,,IMU->,3,-90,2050,2051,
20324,1744,1122,636,1781,49500,65076,97317,49500,,IMU->,2,-87,2045,2046,
19958,1735,1108,586,1777,49500,65076,97317,49500,,IMU->,4,-89,2048,2049,
19958,1730,1093,553,1772,49500,65076,97317,49500,,IMU->,3,-86,2049,2050,
19958,1731,1080,528,1773,49500,65076,97317,49500,,IMU->,3,-84,2046,2047,
19927,1725,1084,521,1780,49500,65076,97317,49500,,IMU->,4,-82,2051,2052,
19927,1725,1080,513,1776,49500,65076,97317,49500,,IMU->,6,-85,2050,2051,
19958,1730,1075,499,1787,49500,65076,97317,49500,,IMU->,4,-89,2047,2048,
20324,1736,1079,503,1778,49500,65076,97317,49500,,IMU->,6,-85,2047,2048,
19958,1732,1066,496,1773,49500,65076,97317,49500,,IMU->,4,-85,2049,2050,
19958,1730,1081,492,1778,49500,65076,97317,49500,,IMU->,8,-85,2048,2049,
19958,1731,1073,472,1773,49500,65076,97317,49500,,IMU->,6,-83,2047,2048,
19958,1732,1066,439,1776,49500,65076,97317,49500,,IMU->,3,-89,2047,2048,
19958,1733,1062,418,1779,49500,65076,97317,49500,,IMU->,6,-87,2048,2049,
19927,1734,1046,391,1782,49500,65076,97317,49500,,IMU->,4,-88,2049,2050,
20324,1730,1050,352,1774,49500,65076,97317,49500,,IMU->,5,-86,2049,2050,
19958,1735,1041,371,1767,49500,65076,97317,49500,,IMU->,4,-91,2047,2049,
19958,1728,1081,585,1776,49500,65076,97317,49500,,IMU->,5,-87,2049,2050,
19958,1729,1234,1249,1779,49500,65076,97317,49500,,IMU->,3,-86,2048,2049,
19958,1729,1455,2079,1777,49500,65076,97317,49500,,IMU->,7,-88,2046,2047,
19958,1728,1621,2656,1782,49500,65076,97317,49500,,IMU->,9,-91,2051,2053,
19958,1741,1730,2974,1783,49500,65076,97317,49500,,IMU->,4,-86,2051,2052,
19927,1740,1753,2976,1782,49500,65076,97317,49500,,IMU->,5,-83,2046,2047,
20324,1733,1738,2950,1781,49500,65076,97317,49500,,IMU->,6,-87,2051,2052,
19958,1739,1681,2720,1780,49500,65076,97317,49500,,IMU->,3,-88,2051,2052,
19958,1725,1609,2421,1778,49500,65076,97317,49500,,IMU->,5,-86,2047,2048,
19958,1729,1522,2103,1777,49500,65076,97317,49500,,IMU->,5,-88,2047,2048,
19958,1740,1446,1797,1786,49500,65076,97317,49500,,IMU->,3,-84,2050,2051,
19958,1733,1370,1494,1774,49500,65076,97317,49500,,IMU->,6,-83,2050,2051,
19958,1737,1306,1282,1778,49500,65076,97317,49500,,IMU->,6,-89,2046,2047,
19927,1732,1269,1136,1779,49500,65076,97317,49500,,IMU->,6,-86,2045,2046,
20324,1734,1246,1097,1775,49500,65076,97317,49500,,IMU->,5,-86,2046,2047,
19958,1737,1259,1167,1782,49500,65076,97317,49500,,IMU->,5,-88,2048,2049,
19958,1735,1290,1306,1777,49500,65076,97317,49500,,IMU->,2,-86,2048,2049,
19958,1735,1339,1502,1782,49500,65076,97317,49500,,IMU->,6,-85,2047,2048,
19958,1733,1386,1653,1778,49500,65076,97317,49500,,IMU->,6,-87,2046,2047,
19958,1735,1413,1734,1774,49500,65076,97317,49500,,IMU->,4,-88,2049,2050,
19958,1736,1425,1748,1784,49500,65076,97317,49500,,IMU->,4,-86,2048,2049,
19927,1736,1416,1692,1782,49500,65076,97317,49500,,IMU->,4,-85,2048,2049,
20324,1732,1385,1584,1781,49500,65076,97317,49500,,IMU->,5,-86,2050,2051,
19958,1736,1365,1462,1787,49500,65076,97317,49500,,IMU->,4,-90,2050,2051,
19989,1736,1329,1321,1777,49500,65076,97317,49500,,IMU->,4,-89,2049,2050,
19958,1737,1282,1183,1782,49500,65076,97317,49500,,IMU->,5,-86,2052,2053,
19958,1736,1256,1071,1776,49500,65076,97317,49500,,IMU->,2,-84,2047,2048,
19958,1735,1223,973,1772,49500,65076,97317,49500,,IMU->,7,-88,2047,2048,
19958,1728,1203,886,1781,49500,65076,97317,49500,,IMU->,4,-85,2050,2051,
19958,1731,1189,812,1780,49500,65076,97317,49500,,IMU->,7,-87,2047,2048,
19958,1733,1171,771,1780,49500,65076,97317,49500,,IMU->,3,-87,2052,2053,
20324,1729,1156,721,1779,49500,65076,97317,49500,,IMU->,6,-85,2049,2050,
19958,1737,1150,706,1779,49500,65076,97317,49500,,IMU->,4,-87,2050,2051,
19958,1725,1139,681,1778,49500,65076,97317,49500,,IMU->,7,-86,2047,2048,
19958,1728,1143,675,1777,49500,65076,97317,49500,,IMU->,5,-88,2048,2049,
19958,1737,1144,666,1779,49500,65076,97317,49500,,IMU->,3,-87,2048,2049,
19958,1732,1138,661,1777,49500,65076,97317,49500,,IMU->,4,-88,2048,2049,
19958,1727,1134,658,1779,49500,65076,97317,49500,,IMU->,6,-85,2049,2050,
19927,1730,1136,655,1778,49500,65076,97317,49500,,IMU->,5,-86,2048,2049,
20324,1730,1126,631,1771,49500,65076,97317,49500,,IMU->,4,-86,2047,2048,
19958,1732,1121,613,1778,49500,65076,97317,49500,,IMU->,3,-85,2049,2050,
19958,1728,1115,581,1772,49500,65076,97317,49500,,IMU->,4,-87,2050,2051,
19958,1730,1107,555,1774,49500,65076,97317,49500,,IMU->,4,-89,2049,2050,
19958,1732,1109,516,1779,49500,65076,97317,49500,,IMU->,3,-90,2049,2050,
19958,1729,1093,467,1771,49500,65076,97317,49500,,IMU->,3,-89,2050,2051,
19958,1730,1084,415,1778,49500,65076,97317,49500,,IMU->,8,-83,2048,2049,
19927,1728,1075,381,1777,49500,65076,97317,49500,,IMU->,5,-87,2048,2049,
20324,1730,1065,357,1770,49500,65076,97317,49500,,IMU->,7,-92,2051,2053,
19958,1731,1079,425,1778,49500,65076,97317,49500,,IMU->,7,-87,2051,2052,
19958,1720,1155,814,1771,49500,65076,97317,49500,,IMU->,5,-84,2046,2047,
19958,1720,1351,1682,1774,49500,65076,97317,49500,,IMU->,4,-87,2051,2052,
19958,1731,1586,2479,1779,49500,65076,97317,49500,,IMU->,1,-91,2050,2052,
19958,1732,1727,2977,1778,49500,65076,97317,49500,,IMU->,3,-89,2047,2048,
19958,1728,1807,2975,1788,49500,65076,97317,49500,,IMU->,4,-87,2052,2053,
20294,1732,1817,2981,1779,49500,65076,97317,49500,,IMU->,0,-87,2049,2050,
19958,1736,1776,2979,1780,49500,65076,97317,49500,,IMU->,3,-84,2049,2050,
19958,1728,1708,2747,1781,49500,65076,97317,49500,,IMU->,4,-88,2052,2053,
19958,1731,1620,2434,1774,49500,65076,97317,49500,,IMU->,4,-87,2050,2051,
19958,1725,1545,2094,1777,49500,65076,97317,49500,,IMU->,8,-87,2050,2051,
19958,1731,1467,1794,1774,49500,65076,97317,49500,,IMU->,6,-91,2046,2048,
19958,1737,1392,1518,1780,49500,65076,97317,49500,,IMU->,3,-86,2051,2052,
19958,1730,1326,1302,1776,49500,65076,97317,49500,,IMU->,4,-89,2051,2052,
20294,1731,1296,1204,1778,49500,65076,97317,49500,,IMU->,5,-92,2045,2047,
19958,1731,1289,1207,1776,49500,65076,97317,49500,,IMU->,8,-90,2048,2049,
19958,1725,1303,1291,1773,49500,65076,97317,49500,,IMU->,6,-89,2047,2048,
19958,1742,1350,1436,1786,49500,65076,97317,49500,,IMU->,2,-89,2050,2051,
19958,1738,1387,1591,1780,49500,65076,97317,49500,,IMU->,4,-87,2046,2047,
19958,1734,1415,1711,1782,49500,65076,97317,49500,,IMU->,4,-87,2052,2053,
19958,1728,1445,1777,1787,49500,65076,97317,49500,,IMU->,2,-87,2049,2050,
19958,1729,1446,1758,1774,49500,65076,97317,49500,,IMU->,8,-86,2048,2049,
20294,1729,1427,1677,1780,49500,65076,97317,49500,,IMU->,5,-86,2046,2047,
19958,1741,1401,1558,1784,49500,65076,97317,49500,,IMU->,4,-88,2049,2050,
19958,1733,1361,1411,1781,49500,65076,97317,49500,,IMU->,6,-87,2051,2052,
19958,1736,1326,1270,1787,49500,65076,97317,49500,,IMU->,3,-90,2052,2053,
19958,1743,1296,1153,1783,49500,65076,97317,49500,,IMU->,3,-85,2049,2050,
19958,1739,1262,1028,1785,49500,65076,97317,49500,,IMU->,4,-87,2049,2050,
19958,1740,1226,919,1788,49500,65076,97317,49500,,IMU->,3,-90,2048,2049,
19958,1738,1201,847,1782,49500,65076,97317,49500,,IMU->,3,-84,2047,2048,
20294,1739,1191,787,1788,49500,65076,97317,49500,,IMU->,4,-85,2049,2050,
19958,1741,1179,743,1785,49500,65076,97317,49500,,IMU->,6,-87,2051,2052,
19958,1741,1154,687,1784,49500,65076,97317,49500,,IMU->,5,-86,2051,2052,
19958,1738,1152,666,1787,49500,65076,97317,49500,,IMU->,6,-86,2047,2048,
19958,1741,1142,650,1778,49500,65076,97317,49500,,IMU->,4,-86,2046,2047,
19958,1726,1138,637,1776,49500,65076,97317,49500,,IMU->,7,-88,2047,2048,
19958,1728,1138,627,1778,49500,65076,97317,49500,,IMU->,3,-88,2052,2053,
19958,1739,1136,624,1792,49500,65076,97317,49500,,IMU->,7,-88,2054,2055,
20294,1740,1139,599,1784,49500,65076,97317,49500,,IMU->,4,-87,2049,2050,
19958,1743,1129,613,1787,49500,65076,97317,49500,,IMU->,2,-88,2050,2051,
19958,1740,1129,582,1786,49500,65076,97317,49500,,IMU->,7,-87,2052,2053,
19958,1728,1117,549,1779,49500,65076,97317,49500,,IMU->,4,-90,2051,2052,
19958,1740,1114,522,1783,49500,65076,97317,49500,,IMU->,4,-88,2048,2049,
19958,1737,1104,493,1781,49500,65076,97317,49500,,IMU->,6,-86,2049,2050,
19927,1736,1089,465,1787,49500,65076,97317,49500,,IMU->,7,-87,2047,2048,
20294,1743,1081,434,1791,49500,65076,97317,49500,,IMU->,4,-88,2050,2051,
19958,1742,1078,397,1782,49500,65076,97317,49500,,IMU->,5,-88,2050,2051,
19958,1744,1061,352,1784,49500,65076,97317,49500,,IMU->,4,-88,2047,2048,
19958,1739,1050,308,1785,49500,64944,97317,49500,,IMU->,8,-89,2049,2050,
19958,1738,888,256,1785,49500,64944,97317,49500,,IMU->,5,-89,2050,2051,
19958,1738,885,226,1786,49500,64944,97317,49500,,IMU->,5,-87,2050,2051,
19958,1742,887,200,1783,49500,64944,97317,49500,,IMU->,2,-86,2046,2047,
19958,1742,892,272,1787,49500,64944,97317,49500,,IMU->,3,-87,2051,2052,
20294,1738,972,657,1784,49500,64944,97317,49500,,IMU->,5,-84,2049,2050,
19958,1736,1169,1509,1781,49500,64944,97317,49500,,IMU->,4,-88,2049,2050,
19958,1730,1388,2252,1786,49500,64944,97317,49500,,IMU->,2,-89,2047,2048,
19958,1736,1525,2721,1785,49500,64944,97317,49500,,IMU->,6,-86,2047,2048,
19958,1742,1594,2913,1789,49500,64944,97317,49500,,IMU->,6,-85,2050,2051,
19958,1737,1604,2890,1791,49500,64944,97317,49500,,IMU->,6,-89,2050,2051,
19958,1745,1555,2675,1792,49500,64944,97317,49500,,IMU->,6,-87,2052,2053,
19958,1740,1480,2364,1789,49500,64944,97317,49500,,IMU->,6,-87,2047,2048,
20294,1737,1392,2041,1786,49500,64944,97317,49500,,IMU->,7,-88,2049,2050,
19958,1744,1304,1693,1786,49500,64944,97317,49500,,IMU->,5,-88,2050,2051,
19958,1740,1223,1378,1790,49500,64944,97317,49500,,IMU->,7,-85,2049,2050,
19958,1737,1147,1118,1789,49500,64944,97317,49500,,IMU->,7,-87,2047,2048,
19958,1744,1107,944,1789,49500,64944,97317,49500,,IMU->,3,-89,2047,2048,
19958,1729,1074,879,1774,49500,64944,97317,49500,,IMU->,6,-86,2048,2049,
19958,1736,1071,892,1782,49500,64944,97317,49500,,IMU->,3,-84,2047,2048,
19958,1724,1098,988,1780,49500,64944,97317,49500,,IMU->,1,-86,2048,2049,
20294,1737,1140,1202,1781,49500,64944,97317,49500,,IMU->,5,-85,2048,2049,
19958,1736,1202,1391,1785,49500,64944,97317,49500,,IMU->,5,-88,2053,2054,
19958,1737,1249,1526,1785,49500,64944,97317,49500,,IMU->,6,-90,2050,2051,
19989,1744,1267,1579,1792,49500,64944,97317,49500,,IMU->,6,-85,2051,2052,
19958,1743,1268,1539,1778,49500,64944,97317,49500,,IMU->,6,-86,2049,2050,
19958,1731,1240,1445,1772,49500,64944,97317,49500,,IMU->,2,-87,2049,2050,
19958,1730,1208,1316,1779,49500,64944,97317,49500,,IMU->,6,-90,2051,2052,
19958,1727,1175,1181,1773,49500,64944,97317,49500,,IMU->,6,-86,2045,2046,
20324,1740,1133,1035,1785,49500,64944,97317,49500,,IMU->,2,-89,2049,2050,
19958,1736,1103,920,1787,49500,64944,97317,49500,,IMU->,7,-88,2046,2047,
19958,1731,1076,806,1782,49500,64944,97317,49500,,IMU->,3,-87,2048,2049,
19958,1739,1055,718,1785,49500,64944,97317,49500,,IMU->,7,-90,2048,2049,
19958,1729,1028,654,1771,49500,64944,97317,49500,,IMU->,5,-84,2048,2049,
19958,1735,1016,602,1775,49500,64944,97317,49500,,IMU->,5,-88,2049,2050,
19958,1729,1005,561,1780,49500,64944,97317,49500,,IMU->,4,-87,2050,2051,
19958,1733,991,537,1779,49500,64944,97317,49500,,IMU->,4,-84,2050,2051,
19958,1727,995,506,1788,49500,64944,97317,49500,,IMU->,6,-87,2049,2050,
20324,1732,984,494,1778,49500,64944,97317,49500,,IMU->,6,-87,2048,2049,
19958,1736,977,496,1779,49500,64944,97317,49500,,IMU->,6,-89,2048,2049,
19958,1737,987,492,1780,49500,64944,97317,49500,,IMU->,6,-87,2050,2051,
19958,1729,979,493,1776,49500,64944,97317,49500,,IMU->,6,-85,2048,2049,
19958,1730,966,472,1777,49500,64944,97317,49500,,IMU->,4,-83,2049,2050,
19958,1735,980,472,1783,49500,64944,97317,49500,,IMU->,7,-88,2048,2049,
19958,1736,971,449,1782,49500,64944,97317,49500,,IMU->,4,-85,2051,2052,
19958,1735,967,410,1788,49500,64944,97317,49500,,IMU->,7,-86,2048,2049,
20324,1744,952,363,1782,49500,64944,97317,49500,,IMU->,3,-90,2047,2048,
19958,1736,943,331,1780,49500,64944,97317,49500,,IMU->,6,-87,2050,2051,
19958,1734,934,285,1776,49500,64944,97317,49500,,IMU->,5,-85,2050,2051,
19958,1733,917,231,1779,49500,64944,97317,49500,,IMU->,4,-88,2047,2048,
19958,1732,915,222,1772,49500,64944,97317,49500,,IMU->,1,-87,2045,2046,
19958,1727,934,333,1776,49500,64944,97317,49500,,IMU->,4,-86,2049,2050,
19958,1733,1024,757,1779,49500,64944,97317,49500,,IMU->,6,-85,2045,2046,
19958,1729,1227,1559,1777,49500,64944,97317,49500,,IMU->,1,-88,2053,2054,
19958,1729,1419,2231,1785,49500,64944,97317,49500,,IMU->,8,-88,2045,2046,
20324,1733,1537,2618,1784,49500,64944,97317,49500,,IMU->,4,-89,2050,2051,
19958,1738,1595,2772,1784,49500,64944,97317,49500,,IMU->,6,-86,2052,2053,
19958,1740,1589,2690,1785,49500,64944,97317,49500,,IMU->,3,-85,2046,2047,
19958,1734,1533,2467,1782,49500,64944,97317,49500,,IMU->,5,-89,2047,2048,
19958,1736,1456,2151,1778,49500,64944,97317,49500,,IMU->,6,-87,2048,2049,
19958,1731,1371,1811,1776,49500,64944,97317,49500,,IMU->,5,-86,2053,2054,
19958,1726,1273,1474,1774,49500,64944,97317,49500,,IMU->,3,-87,2048,2049,
19958,1726,1200,1171,1783,49500,64944,97317,49500,,IMU->,2,-89,2047,2048,
20324,1735,1131,928,1778,49500,64944,97317,49500,,IMU->,2,-87,2048,2049,
19958,1733,1072,785,1774,49500,64944,97317,49500,,IMU->,7,-87,2049,2050,
19958,1735,1067,719,1782,49500,64944,97317,49500,,IMU->,5,-87,2047,2048,
19958,1734,1060,751,1778,49500,64944,97317,49500,,IMU->,3,-88,2048,2049,
19958,1727,1086,844,1780,49500,64944,97317,49500,,IMU->,5,-86,2050,2051,
19958,1736,1137,1038,1777,49500,64944,97317,49500,,IMU->,4,-84,2046,2047,
19958,1731,1185,1230,1779,49500,64944,97317,49500,,IMU->,7,-86,2049,2050,
19958,1725,1227,1343,1782,49500,64944,97317,49500,,IMU->,7,-88,2051,2052,
19958,1731,1239,1370,1777,49500,64944,97317,49500,,IMU->,3,-88,2049,2050,
20324,1729,1230,1318,1781,49500,64944,97317,49500,,IMU->,9,-88,2047,2048,
19958,1740,1213,1242,1781,49500,64944,97317,49500,,IMU->,6,-86,2053,2054,
19958,1740,1177,1103,1780,49500,64944,97317,49500,,IMU->,4,-91,2050,2052,
19958,1730,1145,976,1781,49500,64944,97317,49500,,IMU->,4,-86,2049,2050,
19958,1734,1112,854,1779,49500,64944,97317,49500,,IMU->,5,-87,2049,2050,
19958,1732,1079,737,1780,49500,64944,97317,49500,,IMU->,6,-84,2046,2047,
19958,1729,1047,639,1779,49500,64944,97317,49500,,IMU->,7,-87,2047,2048,
19958,1739,1030,559,1785,49500,64944,97317,49500,,IMU->,4,-88,2049,2050,
19989,1739,1012,489,1776,49500,64944,97317,49500,,IMU->,3,-89,2048,2049,
20324,1731,993,457,1777,49500,64944,97317,49500,,IMU->,6,-89,2050,2051,
19958,1738,984,423,1778,49500,64944,97317,49500,,IMU->,2,-86,2050,2051,
19958,1722,974,384,1768,49500,64944,97317,49500,,IMU->,6,-87,2050,2051,
19958,1732,965,377,1777,49500,64944,97317,49500,,IMU->,2,-85,2048,2049,
19958,1729,970,362,1774,49500,64944,97317,49500,,IMU->,1,-88,2046,2047,
19958,1730,961,357,1784,49500,64944,97317,49500,,IMU->,5,-87,2051,2052,
19958,1732,957,337,1786,49500,64944,97317,49500,,IMU->,2,-84,2044,2045,
19958,1732,962,340,1780,49500,64944,97317,49500,,IMU->,5,-88,2052,2053,
20324,1733,954,326,1772,49500,64944,97317,49500,,IMU->,6,-87,2048,2049,
19958,1739,953,323,1779,49500,64944,97317,49500,,IMU->,4,-88,2052,2053,
19958,1729,942,303,1773,49500,64944,97317,49500,,IMU->,4,-86,2053,2054,
19958,1729,945,287,1779,49500,64944,97317,49500,,IMU->,8,-89,2048,2049,
19958,1731,939,269,1778,49500,64944,97317,49500,,IMU->,6,-88,2049,2050,
19958,1732,933,238,1779,49500,64944,97317,49500,,IMU->,7,-85,2049,2050,
19958,1728,927,207,1783,49500,64944,97317,49500,,IMU->,2,-87,2051,2052,
19958,1731,918,179,1775,49500,64944,97317,49500,,IMU->,4,-88,2048,2049,
19958,1723,903,123,1776,49500,64944,97317,49500,,IMU->,5,-89,2047,2048,
19989,1723,903,97,1775,49500,64944,97317,49500,,IMU->,6,-91,2049,2051,
20324,1729,894,76,1771,49500,64944,97317,49500,,IMU->,4,-86,2048,2049,
19958,1725,898,135,1773,49500,64944,97317,49500,,IMU->,6,-86,2047,2048,
19958,1735,989,526,1775,49500,64944,97317,49500,,IMU->,4,-88,2050,2051,
19958,1725,1207,1394,1773,49500,64944,97317,49500,,IMU->,6,-89,2047,2048,
19958,1714,1422,2201,1768,49500,64944,97317,49500,,IMU->,3,-90,2051,2052,
19958,1729,1571,2716,1780,49500,64944,97317,49500,,IMU->,9,-90,2051,2052,
19958,1732,1650,2924,1778,49500,64944,97317,49500,,IMU->,2,-88,2047,2048,
19958,1720,1651,2914,1777,49500,64944,97317,49500,,IMU->,4,-86,2044,2045,
20324,1736,1624,2750,1782,49500,64944,97317,49500,,IMU->,9,-87,2048,2049,
19958,1730,1562,2481,1773,49500,64944,97317,49500,,IMU->,2,-89,2050,2051,
19958,1730,1473,2166,1777,49500,64944,97317,49500,,IMU->,5,-91,2047,2049,
19958,1731,1390,1832,1774,49500,64944,97317,49500,,IMU->,6,-89,2047,2048,
19958,1722,1304,1530,1762,49500,64944,97317,49500,,IMU->,4,-87,2047,2048,
19958,1721,1243,1252,1778,49500,64944,97317,49500,,IMU->,4,-87,2048,2049,
19958,1726,1180,1047,1768,49500,64944,97317,49500,,IMU->,5,-87,2049,2050,
19958,1721,1143,945,1774,49500,64944,97317,49500,,IMU->,3,-88,2051,2052,
19958,1733,1142,956,1775,49500,64944,97317,49500,,IMU->,6,-89,2048,2049,
20324,1723,1155,1045,1766,49500,64944,97317,49500,,IMU->,5,-89,2050,2051,
19958,1715,1195,1214,1769,49500,64944,97317,49500,,IMU->,4,-86,2052,2053,
19958,1725,1258,1426,1768,49500,64944,97317,49500,,IMU->,10,-87,2049,2050,
19958,1724,1292,1550,1765,49500,64944,97317,49500,,IMU->,4,-85,2048,2049,
19958,1725,1320,1621,1779,49500,64944,97317,49500,,IMU->,2,-89,2053,2054,
19958,1734,1315,1600,1769,49500,64944,97317,49500,,IMU->,6,-88,2048,2049,
19958,1722,1295,1495,1765,49500,64944,97317,49500,,IMU->,2,-88,2050,2051,
19958,1716,1264,1367,1760,49500,64944,97317,49500,,IMU->,9,-85,2046,2047,
20324,1722,1219,1221,1761,49500,64944,97317,49500,,IMU->,4,-91,2047,2049,
19958,1719,1184,1070,1771,49500,64944,97317,49500,,IMU->,2,-87,2049,2050,
19958,1727,1143,961,1777,49500,64944,97317,49500,,IMU->,6,-86,2049,2050,
19958,1732,1127,848,1784,49500,64944,97317,49500,,IMU->,4,-88,2050,2051,
19958,1730,1099,746,1771,49500,64944,97317,49500,,IMU->,3,-88,2050,2051,
19958,1732,1063,674,1774,49500,64944,97317,49500,,IMU->,7,-88,2049,2050,
19958,1723,1050,615,1769,49500,64944,97317,49500,,IMU->,4,-88,2047,2048,
19958,1719,1030,567,1768,49500,64944,97317,49500,,IMU->,4,-88,2052,2053,
19958,1721,1021,534,1774,49500,64944,97317,49500,,IMU->,7,-85,2050,2051,
20324,1727,1017,520,1763,49500,64944,97317,49500,,IMU->,6,-86,2052,2053,
19958,1729,1008,517,1775,49500,64944,97317,49500,,IMU->,1,-88,2051,2052,
19958,1727,1014,508,1774,49500,64944,97317,49500,,IMU->,5,-85,2051,2052,
19958,1721,1005,485,1764,49500,64944,97317,49500,,IMU->,4,-85,2047,2048,
19958,1718,1009,499,1772,49500,64944,97317,49500,,IMU->,3,-90,2048,2049,
19958,1721,1008,502,1764,49500,64944,97317,49500,,IMU->,5,-87,2047,2048,
19958,1718,1004,486,1765,49500,64944,97317,49500,,IMU->,6,-91,2050,2052,
19958,1722,1009,468,1778,49500,64944,97317,49500,,IMU->,2,-88,2047,2048,
20324,1730,997,457,1773,49500,64944,97317,49500,,IMU->,6,-88,2049,2050,
19958,1727,985,428,1773,49500,64944,97317,49500,,IMU->,6,-88,2049,2050,
19958,1727,980,409,1770,49500,64944,97317,49500,,IMU->,3,-84,2051,2052,
19958,1728,958,366,1765,49500,64944,97317,49500,,IMU->,5,-86,2049,2050,
19958,1718,956,329,1769,49500,64944,97317,49500,,IMU->,3,-83,2051,2052,
19958,1728,946,286,1770,49500,64944,97317,49500,,IMU->,4,-89,2048,2049,
19958,1721,933,250,1769,49500,64944,97317,49500,,IMU->,0,-88,2050,2051,
19958,1720,925,196,1770,49500,64944,97317,49500,,IMU->,4,-87,2053,2054,
20324,1728,911,156,1762,49500,64944,97317,49500,,IMU->,5,-81,2052,2053,
19989,1724,909,137,1766,49500,64977,97482,49500,,IMU->,6,-86,2049,2050,
19958,1725,910,325,1764,49500,64977,97482,49500,,IMU->,6,-82,2052,2053,
19958,1717,962,588,1768,49500,64977,97482,49500,,IMU->,4,-87,2051,2052,
19958,1720,1137,1320,1765,49500,64977,97482,49500,,IMU->,8,-86,2049,2050,
19958,1726,1370,2183,1771,49500,64977,97482,49500,,IMU->,2,-87,2049,2050,
19958,1725,1536,2745,1771,49500,64977,97482,49500,,IMU->,7,-88,2050,2051,
19958,1723,1625,2977,1766,49500,64977,97482,49500,,IMU->,4,-86,2049,2050,
19958,1718,1654,2980,1769,49500,64977,97482,49500,,IMU->,4,-89,2048,2049,
19958,1712,1626,2949,1772,49500,64977,97482,49500,,IMU->,4,-86,2048,2049,
20324,1728,1570,2696,1768,49500,64977,97482,49500,,IMU->,3,-81,2048,2049,
19958,1728,1502,2384,1772,49500,64977,97482,49500,,IMU->,3,-84,2050,2051,
19958,1722,1411,2054,1768,49500,64977,97482,49500,,IMU->,3,-85,2050,2051,
19958,1726,1333,1737,1772,49500,64977,97482,49500,,IMU->,6,-87,2047,2048,
19958,1720,1255,1451,1758,49500,64977,97482,49500,,IMU->,2,-90,2048,2049,
19958,1721,1184,1226,1758,49500,64977,97482,49500,,IMU->,5,-87,2051,2052,
19958,1715,1155,1115,1763,49500,64977,97482,49500,,IMU->,4,-85,2045,2046,
19958,1713,1142,1119,1758,49500,64977,97482,49500,,IMU->,6,-87,2049,2050,
20324,1718,1159,1204,1766,49500,64977,97482,49500,,IMU->,5,-88,2048,2049,
19958,1718,1207,1392,1763,49500,64977,97482,49500,,IMU->,0,-87,2048,2049,
19958,1724,1267,1629,1765,49500,64977,97482,49500,,IMU->,4,-86,2049,2050,
19958,1721,1328,1789,1769,49500,64977,97482,49500,,IMU->,4,-87,2049,2050,
19958,1724,1347,1881,1769,49500,64977,97482,49500,,IMU->,4,-86,2047,2048,
19958,1726,1356,1870,1768,49500,64977,97482,49500,,IMU->,3,-83,2045,2046,
19958,1714,1348,1808,1766,49500,64977,97482,49500,,IMU->,2,-83,2053,2054,
19958,1716,1315,1682,1766,49500,64977,97482,49500,,IMU->,6,-89,2050,2051,
19958,1711,1279,1528,1770,49500,64977,97482,49500,,IMU->,3,-91,2045,2047,
20324,1725,1242,1396,1768,49500,64977,97482,49500,,IMU->,6,-87,2050,2051,
19958,1722,1202,1260,1768,49500,64977,97482,49500,,IMU->,5,-86,2048,2049,
19958,1715,1169,1146,1765,49500,64977,97482,49500,,IMU->,4,-88,2050,2051,
19958,1721,1139,1034,1772,49500,64977,97482,49500,,IMU->,1,-87,2048,2049,
19958,1718,1111,957,1768,49500,64977,97482,49500,,IMU->,4,-81,2046,2047,
19958,1723,1086,907,1764,49500,64977,97482,49500,,IMU->,6,-87,2051,2052,
19958,1723,1084,862,1760,49500,64977,97482,49500,,IMU->,7,-84,2049,2050,
19958,1715,1072,825,1750,49500,64977,97482,49500,,IMU->,3,-88,2047,2048,
20324,1724,1058,803,1768,49500,64977,97482,49500,,IMU->,6,-89,2049,2050,
19958,1721,1058,789,1768,49500,64977,97482,49500,,IMU->,6,-87,2046,2047,
19958,1718,1050,781,1764,49500,64977,97482,49500,,IMU->,4,-84,2049,2050,
19958,1719,1049,769,1765,49500,64977,97482,49500,,IMU->,8,-87,2051,2052,
19958,1717,1054,764,1765,49500,64977,97482,49500,,IMU->,6,-88,2048,2049,
19958,1725,1047,756,1768,49500,64977,97482,49500,,IMU->,9,-90,2045,2046,
19958,1718,1054,747,1770,49500,64977,97482,49500,,IMU->,5,-85,2050,2051,
19958,1720,1048,750,1765,49500,64977,97482,49500,,IMU->,0,-86,2048,2049,
19958,1718,1041,717,1773,49500,64977,97482,49500,,IMU->,4,-84,2046,2047,
20324,1723,1037,677,1762,49500,64977,97482,49500,,IMU->,5,-86,2051,2052,
19958,1726,1015,638,1767,49500,64977,97482,49500,,IMU->,4,-89,2046,2047,
19958,1719,1009,592,1768,49500,64977,97482,49500,,IMU->,8,-85,2050,2051,
19958,1719,999,553,1759,49500,64977,97482,49500,,IMU->,0,-90,2049,2050,
19958,1720,991,539,1767,49500,64977,97482,49500,,IMU->,7,-88,2049,2050,
19958,1720,1010,649,1761,49500,64977,97482,49500,,IMU->,6,-87,2049,2050,
19958,1718,1095,1064,1763,49500,64977,97482,49500,,IMU->,4,-90,2047,2048,
19958,1714,1311,1907,1770,49500,64977,97482,49500,,IMU->,3,-85,2050,2051,
20324,1721,1515,2671,1769,49500,64977,97482,49500,,IMU->,6,-89,2048,2049,
19958,1722,1657,2980,1783,49500,64977,97482,49500,,IMU->,2,-89,2050,2051,
19958,1734,1716,2983,1777,49500,64977,97482,49500,,IMU->,5,-87,2051,2052,
19958,1734,1713,2978,1772,49500,64977,97482,49500,,IMU->,5,-87,2045,2046,
19958,1731,1680,2978,1780,49500,64977,97482,49500,,IMU->,3,-85,2047,2048,
19958,1728,1608,2786,1772,49500,64977,97482,49500,,IMU->,3,-85,2052,2053,
19958,1728,1521,2448,1772,49500,64977,97482,49500,,IMU->,1,-86,2051,2052,
19958,1718,1444,2137,1774,49500,64977,97482,49500,,IMU->,6,-86,2052,2053,
19958,1719,1359,1840,1763,49500,64977,97482,49500,,IMU->,5,-87,2048,2049,
20324,1731,1291,1561,1774,49500,64977,97482,49500,,IMU->,8,-90,2049,2050,
19958,1730,1233,1375,1769,49500,64977,97482,49500,,IMU->,5,-84,2047,2048,
19958,1722,1195,1298,1774,49500,64977,97482,49500,,IMU->,4,-85,2047,2048,
19958,1719,1204,1319,1768,49500,64977,97482,49500,,IMU->,3,-86,2048,2049,
19958,1723,1235,1449,1769,49500,64977,97482,49500,,IMU->,2,-88,2048,2049,
19958,1728,1291,1646,1770,49500,64977,97482,49500,,IMU->,5,-86,2050,2051,
19958,1720,1345,1856,1767,49500,64977,97482,49500,,IMU->,4,-88,2049,2050,
19958,1730,1380,1988,1777,49500,64977,97482,49500,,IMU->,5,-86,2049,2050,
20324,1731,1410,2012,1770,49500,64977,97482,49500,,IMU->,6,-86,2050,2051,
19958,1720,1390,1964,1773,49500,64977,97482,49500,,IMU->,6,-89,2049,2050,
19958,1722,1366,1846,1771,49500,64977,97482,49500,,IMU->,5,-85,2046,2047,
19958,1727,1334,1714,1767,49500,64977,97482,49500,,IMU->,5,-89,2046,2047,
19958,1726,1297,1571,1778,49500,64977,97482,49500,,IMU->,4,-90,2050,2051,
19958,1727,1264,1431,1774,49500,64977,97482,49500,,IMU->,3,-86,2047,2048,
19958,1735,1221,1316,1776,49500,64977,97482,49500,,IMU->,5,-87,2053,2054,
19958,1734,1206,1213,1779,49500,64977,97482,49500,,IMU->,4,-89,2048,2049,
19958,1720,1168,1120,1770,49500,64977,97482,49500,,IMU->,2,-90,2049,2050,
20324,1724,1143,1038,1772,49500,64977,97482,49500,,IMU->,3,-87,2047,2048,
19958,1728,1134,990,1771,49500,64977,97482,49500,,IMU->,6,-89,2050,2051,
19958,1729,1115,946,1773,49500,64977,97482,49500,,IMU->,6,-87,2048,2049,
19958,1732,1112,902,1781,49500,64977,97482,49500,,IMU->,6,-88,2051,2052,
19958,1737,1101,900,1772,49500,64977,97482,49500,,IMU->,5,-85,2048,2049,
19958,1727,1100,887,1776,49500,64977,97482,49500,,IMU->,8,-87,2049,2050,
19958,1724,1098,881,1774,49500,64977,97482,49500,,IMU->,6,-89,2047,2048,
19958,1729,1096,878,1775,49500,64977,97482,49500,,IMU->,5,-89,2045,2046,
20324,1724,1102,874,1773,49500,64977,97482,49500,,IMU->,8,-87,2050,2051,
19958,1732,1099,885,1778,49500,64977,97482,49500,,IMU->,4,-87,2045,2046,
19958,1733,1095,865,1775,49500,64977,97482,49500,,IMU->,1,-88,2048,2049,
19958,1724,1092,834,1767,49500,64977,97482,49500,,IMU->,6,-83,2044,2045,
19958,1728,1080,810,1766,49500,64977,97482,49500,,IMU->,2,-88,2048,2049,
19958,1724,1070,778,1771,49500,64977,97482,49500,,IMU->,5,-84,2044,2045,
19958,1722,1061,748,1772,49500,64977,97482,49500,,IMU->,5,-88,2049,2050,
19958,1724,1053,724,1774,49500,64977,97482,49500,,IMU->,5,-87,2048,2049,
19958,1711,1044,664,1776,49500,64977,97482,49500,,IMU->,4,-86,2047,2048,
20324,1733,1039,626,1774,49500,64977,97482,49500,,IMU->,3,-86,2049,2050,
19958,1728,1035,593,1761,49500,64977,97482,49500,,IMU->,8,-84,2050,2051,
19958,1716,1019,612,1762,49500,64977,97482,49500,,IMU->,6,-89,2049,2050,
19958,1723,1062,803,1769,49500,64977,97482,49500,,IMU->,6,-84,2051,2052,
19958,1719,1223,1523,1761,49500,64977,97482,49500,,IMU->,7,-88,2046,2047,
19958,1717,1461,2448,1769,49500,64977,97482,49500,,IMU->,4,-87,2048,2049,
19958,1726,1668,2974,1781,49500,64977,97482,49500,,IMU->,3,-88,2048,2049,
19958,1728,1771,2978,1771,49500,64977,97482,49500,,IMU->,5,-89,2049,2050,
20324,1726,1801,2977,1779,49500,64977,97482,49500,,IMU->,3,-87,2048,2049,
19958,1727,1795,2981,1777,49500,64977,97482,49500,,IMU->,2,-86,2050,2051,
19958,1727,1730,2976,1772,49500,64977,97482,49500,,IMU->,4,-85,2050,2051,
19958,1726,1666,2963,1778,49500,64977,97482,49500,,IMU->,2,-84,2051,2052,
19958,1736,1591,2654,1776,49500,64977,97482,49500,,IMU->,6,-85,2049,2050,
19958,1732,1511,2354,1774,49500,64977,97482,49500,,IMU->,3,-88,2050,2051,
19958,1729,1439,2060,1769,49500,64977,97482,49500,,IMU->,6,-85,2050,2051,
19958,1728,1369,1804,1771,49500,64977,97482,49500,,IMU->,6,-85,2050,2051,
19958,1707,1316,1626,1769,49500,64977,97482,49500,,IMU->,4,-87,2052,2053,
20324,1724,1294,1598,1765,49500,64977,97482,49500,,IMU->,5,-89,2050,2051,
19958,1726,1306,1665,1766,49500,64977,97482,49500,,IMU->,2,-88,2051,2052,
19958,1719,1347,1814,1771,49500,64977,97482,49500,,IMU->,6,-89,2050,2051,
19958,1729,1399,2019,1779,49500,64977,97482,49500,,IMU->,4,-89,2051,2052,
19958,1728,1445,2171,1773,49500,64977,97482,49500,,IMU->,4,-86,2046,2047,
19958,1722,1470,2273,1777,49500,64977,97482,49500,,IMU->,4,-86,2048,2049,
19958,1729,1485,2271,1774,49500,64977,97482,49500,,IMU->,3,-90,2049,2050,
19958,1722,1467,2198,1765,49500,64977,97482,49500,,IMU->,5,-90,2051,2052,
20324,1730,1436,2083,1778,49500,64977,97482,49500,,IMU->,5,-88,2048,2049,
19958,1735,1412,1945,1782,49500,64977,97482,49500,,IMU->,5,-88,2048,2049,
19958,1725,1357,1789,1764,49500,64977,97482,49500,,IMU->,4,-90,2051,2052,
19958,1727,1327,1651,1777,49500,64977,97482,49500,,IMU->,4,-84,2050,2051,
19958,1726,1290,1513,1763,49500,64977,97482,49500,,IMU->,7,-86,2053,2054,
19958,1726,1253,1408,1772,49500,64977,97482,49500,,IMU->,4,-87,2048,2049,
19958,1729,1237,1311,1782,49500,64977,97482,49500,,IMU->,5,-84,2047,2048,
19958,1729,1211,1255,1773,49500,64977,97482,49500,,IMU->,5,-87,2043,2044,
19958,1715,1195,1200,1780,49500,64977,97482,49500,,IMU->,5,-85,2048,2049,
20324,1735,1189,1156,1774,49500,64977,97482,49500,,IMU->,7,-89,2046,2047,
19958,1729,1172,1131,1770,49500,64977,97482,49500,,IMU->,3,-88,2050,2051,
19958,1729,1172,1113,1774,49500,64977,97482,49500,,IMU->,7,-84,2049,2050,
19958,1726,1169,1114,1771,49500,64977,97482,49500,,IMU->,3,-84,2053,2054,
19958,1723,1162,1113,1770,49500,64977,97482,49500,,IMU->,7,-83,2049,2050,
19958,1726,1167,1095,1774,49500,64977,97482,49500,,IMU->,7,-86,2050,2051,
19958,1726,1161,1084,1771,49500,64977,97482,49500,,IMU->,5,-86,2045,2046,
19958,1720,1155,1064,1774,49500,64977,97482,49500,,IMU->,2,-89,2050,2051,
20324,1728,1151,1038,1772,49500,64977,97482,49500,,IMU->,0,-87,2049,2050,
19958,1729,1140,1007,1772,49500,64977,97482,49500,,IMU->,7,-84,2048,2049,
19958,1722,1130,968,1770,49500,64977,97482,49500,,IMU->,6,-86,2050,2051,
19958,1733,1131,951,1775,49500,64977,97482,49500,,IMU->,1,-89,2046,2047,
19958,1728,1123,903,1770,49500,64977,97482,49500,,IMU->,8,-86,2049,2050,
19958,1721,1103,858,1770,49500,64977,97482,49500,,IMU->,3,-87,2046,2047,
19958,1722,1088,809,1774,49500,64977,97482,49500,,IMU->,4,-87,2048,2049,
19958,1711,1080,754,1757,49500,64977,97482,49500,,IMU->,6,-86,2048,2049,
19958,1714,1069,715,1767,49500,64977,97482,49500,,IMU->,5,-87,2046,2047,
20324,1727,1074,689,1770,49500,64977,97482,49500,,IMU->,7,-89,2051,2052,
19958,1719,1075,772,1765,49500,64977,97482,49500,,IMU->,8,-89,2050,2051,
19958,1725,1153,1144,1774,49500,64977,97482,49500,,IMU->,5,-85,2048,2049,
19958,1725,1372,2017,1771,49500,64977,97482,49500,,IMU->,0,-84,2048,2049,
19958,1723,1582,2845,1766,49500,64977,97482,49500,,IMU->,4,-87,2052,2053,
19958,1721,1747,2982,1776,49500,64977,97482,49500,,IMU->,7,-90,2051,2052,
19989,1724,1820,2977,1771,49500,64878,97152,49500,,IMU->,7,-88,2049,2050,
19958,1726,1689,2977,1779,49500,64878,97152,49500,,IMU->,2,-86,2047,2048,
19958,1726,1662,2979,1781,49500,64878,97152,49500,,IMU->,4,-87,2051,2052,
20324,1734,1589,2914,1776,49500,64878,97152,49500,,IMU->,6,-89,2050,2051,
19958,1730,1500,2566,1783,49500,64878,97152,49500,,IMU->,8,-88,2050,2051,
19958,1732,1418,2229,1777,49500,64878,97152,49500,,IMU->,8,-89,2046,2047,
19958,1728,1328,1892,1770,49500,64878,97152,49500,,IMU->,5,-89,2048,2049,
19958,1730,1250,1600,1774,49500,64878,97152,49500,,IMU->,6,-85,2050,2051,
19958,1726,1187,1376,1772,49500,64878,97152,49500,,IMU->,4,-83,2047,2048,
19958,1724,1155,1273,1780,49500,64878,97152,49500,,IMU->,6,-86,2053,2054,
19958,1724,1149,1304,1777,49500,64878,97152,49500,,IMU->,3,-88,2049,2050,
20324,1735,1180,1415,1774,49500,64878,97152,49500,,IMU->,4,-89,2049,2050,
19958,1728,1228,1630,1771,49500,64878,97152,49500,,IMU->,5,-85,2048,2049,
19958,1731,1287,1835,1773,49500,64878,97152,49500,,IMU->,6,-84,2054,2055,
19958,1729,1334,1987,1781,49500,64878,97152,49500,,IMU->,5,-89,2046,2047,
19958,1729,1351,2043,1771,49500,64878,97152,49500,,IMU->,4,-89,2046,2047,
19958,1722,1351,2004,1772,49500,64878,97152,49500,,IMU->,3,-89,2052,2053,
19958,1726,1337,1912,1775,49500,64878,97152,49500,,IMU->,3,-89,2046,2047,
19958,1726,1306,1805,1770,49500,64878,97152,49500,,IMU->,2,-86,2049,2050,
19958,1719,1268,1649,1775,49500,64878,97152,49500,,IMU->,5,-86,2051,2052,
20324,1730,1226,1496,1777,49500,64878,97152,49500,,IMU->,3,-86,2048,2049,
19958,1728,1188,1360,1774,49500,64878,97152,49500,,IMU->,5,-85,2048,2049,
19958,1723,1162,1243,1770,49500,64878,97152,49500,,IMU->,6,-85,2048,2049,
19958,1727,1131,1145,1766,49500,64878,97152,49500,,IMU->,0,-87,2050,2051,
19958,1730,1112,1063,1777,49500,64878,97152,49500,,IMU->,6,-86,2050,2051,
19958,1726,1087,1001,1766,49500,64878,97152,49500,,IMU->,6,-87,2047,2048,
19958,1725,1072,951,1770,49500,64878,97152,49500,,IMU->,4,-86,2050,2051,
19958,1721,1075,920,1772,49500,64878,97152,49500,,IMU->,7,-87,2048,2049,
20324,1729,1057,896,1766,49500,64878,97152,49500,,IMU->,4,-89,2046,2047,
19958,1723,1049,881,1770,49500,64878,97152,49500,,IMU->,6,-89,2043,2044,
19958,1728,1053,880,1767,49500,64878,97152,49500,,IMU->,5,-84,2047,2048,
19958,1731,1055,872,1775,49500,64878,97152,49500,,IMU->,8,-86,2050,2051,
19958,1722,1057,859,1769,49500,64878,97152,49500,,IMU->,5,-90,2047,2048,
19958,1716,1048,848,1759,49500,64878,97152,49500,,IMU->,5,-87,2046,2047,
19958,1722,1044,833,1763,49500,64878,97152,49500,,IMU->,4,-87,2051,2052,
19958,1711,1041,821,1763,49500,64878,97152,49500,,IMU->,1,-85,2049,2050,
19958,1712,1023,780,1767,49500,64878,97152,49500,,IMU->,5,-90,2052,2053,
20324,1721,1016,741,1769,49500,64878,97152,49500,,IMU->,7,-85,2050,2051,
19958,1730,1001,692,1770,49500,64878,97152,49500,,IMU->,6,-86,2047,2048,
19958,1730,996,635,1778,49500,64878,97152,49500,,IMU->,8,-86,2047,2048,
19958,1729,981,611,1774,49500,64878,97152,49500,,IMU->,7,-86,2050,2051,
19958,1726,967,553,1765,49500,64878,97152,49500,,IMU->,2,-89,2051,2052,
19958,1719,955,500,1770,49500,64878,97152,49500,,IMU->,2,-86,2048,2049,
19958,1723,939,473,1769,49500,64878,97152,49500,,IMU->,6,-89,2050,2051,
19958,1721,939,446,1770,49500,64878,97152,49500,,IMU->,4,-86,2048,2049,
20324,1728,945,468,1774,49500,64878,97152,49500,,IMU->,5,-87,2044,2045,
19927,1730,986,728,1777,49500,64878,97152,49500,,IMU->,5,-87,2048,2049,
19958,1726,1167,1484,1772,49500,64878,97152,49500,,IMU->,6,-88,2052,2053,
19958,1732,1399,2350,1769,49500,64878,97152,49500,,IMU->,6,-85,2052,2053,
19958,1728,1568,2948,1774,49500,64878,97152,49500,,IMU->,5,-86,2048,2049,
19958,1727,1667,2978,1778,49500,64878,97152,49500,,IMU->,7,-89,2048,2049,
19958,1731,1697,2981,1781,49500,64878,97152,49500,,IMU->,4,-87,2052,2053,
19958,1728,1682,2977,1779,49500,64878,97152,49500,,IMU->,4,-89,2047,2048,
20324,1736,1618,2935,1775,49500,64878,97152,49500,,IMU->,5,-84,2048,2049,
19958,1734,1527,2580,1769,49500,64878,97152,49500,,IMU->,3,-87,2046,2047,
19958,1727,1427,2203,1770,49500,64878,97152,49500,,IMU->,4,-87,2050,2051,
19958,1729,1329,1845,1776,49500,64878,97152,49500,,IMU->,3,-86,2049,2050,
19958,1725,1245,1506,1768,49500,64878,97152,49500,,IMU->,4,-86,2049,2050,
19958,1729,1178,1275,1779,49500,64878,97152,49500,,IMU->,2,-85,2049,2050,
19958,1734,1152,1172,1780,49500,64878,97152,49500,,IMU->,6,-86,2049,2050,
19958,1728,1137,1183,1770,49500,64878,97152,49500,,IMU->,8,-88,2048,2049,
19958,1730,1161,1305,1772,49500,64878,97152,49500,,IMU->,6,-85,2051,2052,
20324,1731,1220,1502,1772,49500,64878,97152,49500,,IMU->,2,-87,2049,2050,
19958,1732,1265,1722,1775,49500,64878,97152,49500,,IMU->,4,-86,2047,2048,
19958,1732,1320,1874,1783,49500,64878,97152,49500,,IMU->,5,-86,2047,2048,
19958,1738,1348,1952,1778,49500,64878,97152,49500,,IMU->,5,-83,2051,2052,
19958,1740,1340,1925,1778,49500,64878,97152,49500,,IMU->,7,-87,2050,2051,
19958,1727,1321,1832,1777,49500,64878,97152,49500,,IMU->,5,-90,2048,2049,
19958,1733,1284,1708,1773,49500,64878,97152,49500,,IMU->,1,-86,2051,2052,
19958,1724,1250,1561,1781,49500,64878,97152,49500,,IMU->,5,-87,2048,2049,
20324,1732,1221,1427,1776,49500,64878,97152,49500,,IMU->,5,-85,2047,2048,
19958,1736,1180,1304,1782,49500,64878,97152,49500,,IMU->,6,-88,2051,2052,
19958,1739,1158,1177,1783,49500,64878,97152,49500,,IMU->,3,-89,2051,2052,
19958,1740,1122,1071,1782,49500,64878,97152,49500,,IMU->,9,-88,2048,2049,
19958,1729,1102,999,1774,49500,64878,97152,49500,,IMU->,2,-85,2053,2054,
19958,1721,1081,937,1768,49500,64878,97152,49500,,IMU->,1,-85,2048,2049,
19958,1733,1063,886,1771,49500,64878,97152,49500,,IMU->,3,-87,2047,2048,
19958,1724,1054,842,1770,49500,64878,97152,49500,,IMU->,4,-85,2047,2048,
19958,1732,1049,828,1786,49500,64878,97152,49500,,IMU->,5,-88,2051,2052,
20324,1741,1054,806,1785,49500,64878,97152,49500,,IMU->,1,-88,2050,2051,
19958,1728,1043,800,1774,49500,64878,97152,49500,,IMU->,6,-82,2051,2052,
19958,1730,1034,797,1782,49500,64878,97152,49500,,IMU->,5,-89,2047,2048,
19958,1727,1039,792,1769,49500,64878,97152,49500,,IMU->,3,-84,2048,2049,
19958,1728,1026,781,1768,49500,64878,97152,49500,,IMU->,4,-85,2046,2047,
19958,1730,1030,772,1780,49500,64878,97152,49500,,IMU->,7,-88,2047,2048,
19958,1730,1021,751,1776,49500,64878,97152,49500,,IMU->,5,-87,2049,2050,
19958,1731,1016,722,1777,49500,64878,97152,49500,,IMU->,5,-86,2050,2051,
20324,1732,1014,675,1774,49500,64878,97152,49500,,IMU->,5,-86,2050,2051,
19958,1723,993,637,1771,49500,64878,97152,49500,,IMU->,6,-87,2047,2048,
19958,1726,985,589,1781,49500,64878,97152,49500,,IMU->,2,-87,2049,2050,
19958,1730,970,555,1779,49500,64878,97152,49500,,IMU->,3,-87,2050,2051,
19958,1724,955,510,1773,49500,64878,97152,49500,,IMU->,2,-90,2049,2050,
19958,1725,959,465,1780,49500,64878,97152,49500,,IMU->,4,-86,2051,2052,
19958,1729,949,450,1768,49500,64878,97152,49500,,IMU->,5,-85,2049,2050,
19958,1724,952,476,1776,49500,64878,97152,49500,,IMU->,3,-92,2047,2049,
20324,1727,1001,745,1773,49500,64878,97152,49500,,IMU->,0,-84,2049,2050,
19958,1725,1168,1482,1772,49500,64878,97152,49500,,IMU->,5,-86,2049,2050,
19958,1725,1385,2257,1779,49500,64878,97152,49500,,IMU->,4,-86,2050,2051,
19958,1737,1544,2794,1783,49500,64878,97152,49500,,IMU->,5,-87,2050,2051,
19958,1734,1628,2977,1790,49500,64878,97152,49500,,IMU->,2,-86,2051,2052,
19958,1734,1649,2978,1783,49500,64878,97152,49500,,IMU->,1,-86,2053,2054,
19958,1741,1614,2875,1779,49500,64878,97152,49500,,IMU->,1,-88,2049,2050,
19958,1725,1540,2562,1773,49500,64878,97152,49500,,IMU->,7,-83,2047,2048,
19958,1722,1446,2181,1774,49500,64878,97152,49500,,IMU->,5,-84,2049,2050,
20324,1733,1354,1800,1781,49500,64878,97152,49500,,IMU->,10,-86,2050,2051,
19989,1724,1249,1443,1773,49500,64878,97152,49500,,IMU->,2,-89,2049,2050,
19958,1728,1165,1156,1782,49500,64878,97152,49500,,IMU->,5,-85,2051,2052,
19958,1730,1107,943,1771,49500,64878,97152,49500,,IMU->,4,-88,2052,2053,
19958,1725,1070,874,1769,49500,64878,97152,49500,,IMU->,4,-89,2049,2050,
19958,1727,1071,884,1773,49500,64878,97152,49500,,IMU->,6,-87,2048,2049,
19958,1728,1102,986,1770,49500,64878,97152,49500,,IMU->,7,-90,2052,2053,
19958,1727,1144,1176,1778,49500,64878,97152,49500,,IMU->,5,-85,2049,2050,
19958,1722,1212,1399,1786,49500,64878,97152,49500,,IMU->,4,-86,2047,2048,
20324,1733,1258,1550,1777,49500,64878,97152,49500,,IMU->,3,-90,2048,2049,
19958,1738,1285,1626,1781,49500,64878,97152,49500,,IMU->,5,-90,2051,2052,
19958,1731,1282,1611,1774,49500,64878,97152,49500,,IMU->,4,-86,2047,2048,
19958,1729,1264,1528,1775,49500,64878,97152,49500,,IMU->,2,-86,2047,2048,
19958,1727,1249,1431,1779,49500,64878,97152,49500,,IMU->,7,-84,2048,2049,
19958,1734,1208,1292,1774,49500,64878,97152,49500,,IMU->,5,-87,2051,2052,
19958,1723,1167,1157,1776,49500,64878,97152,49500,,IMU->,4,-88,2047,2048,
19958,1724,1139,1033,1781,49500,64878,97152,49500,,IMU->,4,-86,2052,2053,
19958,1723,1103,907,1770,49500,64878,97152,49500,,IMU->,6,-85,2047,2048,
20324,1722,1072,811,1769,49500,64878,97152,49500,,IMU->,5,-87,2052,2053,
19958,1732,1049,742,1774,49500,64878,97152,49500,,IMU->,5,-88,2052,2053,
19958,1726,1026,650,1776,49500,64878,97152,49500,,IMU->,4,-89,2050,2051,
19958,1721,1015,601,1773,49500,64878,97152,49500,,IMU->,3,-85,2046,2047,
19958,1727,1010,566,1763,49500,64878,97152,49500,,IMU->,6,-86,2049,2050,
19958,1725,1011,543,1770,49500,64878,97152,49500,,IMU->,7,-88,2047,2048,
19958,1726,999,536,1774,49500,64878,97152,49500,,IMU->,5,-87,2048,2049,
19958,1728,1004,524,1774,49500,64878,97152,49500,,IMU->,4,-85,2045,2046,
20324,1721,1000,519,1766,49500,64878,97152,49500,,IMU->,5,-85,2050,2051,
19958,1729,997,536,1770,49500,64878,97152,49500,,IMU->,4,-85,2053,2054,
19958,1721,1007,540,1770,49500,64878,97152,49500,,IMU->,3,-87,2048,2049,
19958,1717,988,534,1773,49500,64878,97152,49500,,IMU->,3,-88,2052,2053,
19958,1735,991,510,1778,49500,64878,97152,49500,,IMU->,4,-85,2048,2049,
19958,1729,978,479,1766,49500,64878,97152,49500,,IMU->,6,-88,2049,2050,
19958,1724,964,464,1773,49500,64878,97152,49500,,IMU->,1,-85,2050,2051,
19958,1724,964,415,1780,49500,64878,97152,49500,,IMU->,2,-87,2045,2046,
19958,1723,945,374,1764,49500,64878,97152,49500,,IMU->,4,-86,2051,2052,
20324,1728,936,323,1775,49500,64878,97152,49500,,IMU->,5,-88,2048,2049,
19958,1730,932,295,1771,49500,64878,97152,49500,,IMU->,7,-86,2047,2048,
19958,1721,920,256,1767,49500,64878,97152,49500,,IMU->,7,-91,2047,2049,
19958,1724,925,303,1770,49500,64878,97152,49500,,IMU->,7,-87,2046,2047,
19958,1724,985,572,1767,49500,64878,97152,49500,,IMU->,6,-91,2052,2054,
19958,1725,1153,1294,1771,49500,64878,97152,49500,,IMU->,5,-86,2048,2049,
19958,1722,1355,2032,1773,49500,64878,97152,49500,,IMU->,6,-89,2049,2050,
19958,1726,1499,2515,1778,49500,64878,97152,49500,,IMU->,4,-87,2048,2049,
20324,1728,1579,2743,1771,49500,64878,97152,49500,,IMU->,5,-89,2049,2050,
19958,1737,1589,2748,1776,49500,64878,97152,49500,,IMU->,7,-87,2047,2048,
19958,1737,1547,2530,1782,49500,64878,97152,49500,,IMU->,4,-86,2044,2045,
19989,1731,1469,2218,1780,49500,64845,96987,49500,,IMU->,7,-86,2049,2050,
19958,1734,1365,1679,1778,49500,64845,96987,49500,,IMU->,3,-87,2053,2054,
19958,1726,1262,1268,1772,49500,64845,96987,49500,,IMU->,5,-86,2046,2047,
19958,1728,1167,935,1779,49500,64845,96987,49500,,IMU->,4,-84,2051,2052,
19958,1734,1089,661,1785,49500,64845,96987,49500,,IMU->,4,-87,2047,2048,
19958,1729,1034,500,1773,49500,64845,96987,49500,,IMU->,4,-83,2048,2049,
20324,1733,1006,447,1780,49500,64845,96987,49500,,IMU->,5,-88,2050,2051,
19958,1728,1018,471,1769,49500,64845,96987,49500,,IMU->,5,-89,2050,2051,
19958,1723,1029,578,1772,49500,64845,96987,49500,,IMU->,3,-85,2055,2056,
19958,1731,1089,782,1785,49500,64845,96987,49500,,IMU->,6,-83,2048,2049,
19958,1730,1144,998,1765,49500,64845,96987,49500,,IMU->,3,-83,2048,2049,
19958,1729,1194,1160,1777,49500,64845,96987,49500,,IMU->,2,-85,2047,2048,
19958,1732,1235,1242,1775,49500,64845,96987,49500,,IMU->,4,-82,2047,2048,
19958,1728,1226,1224,1770,49500,64845,96987,49500,,IMU->,5,-88,2045,2046,
19958,1720,1211,1127,1774,49500,64845,96987,49500,,IMU->,4,-87,2049,2050,
20324,1724,1174,1012,1770,49500,64845,96987,49500,,IMU->,8,-86,2045,2046,
19958,1722,1139,879,1770,49500,64845,96987,49500,,IMU->,6,-85,2049,2050,
19958,1732,1123,754,1772,49500,64845,96987,49500,,IMU->,6,-88,2054,2055,
19958,1729,1080,642,1772,49500,64845,96987,49500,,IMU->,6,-88,2053,2054,
19958,1728,1051,514,1768,49500,64845,96987,49500,,IMU->,8,-85,2048,2049,
19958,1723,1022,436,1766,49500,64845,96987,49500,,IMU->,4,-87,2046,2047,
19958,1722,993,358,1765,49500,64845,96987,49500,,IMU->,3,-87,2046,2047,
19958,1711,987,298,1763,49500,64845,96987,49500,,IMU->,5,-87,2047,2048,
20324,1717,967,255,1760,49500,64845,96987,49500,,IMU->,3,-89,2051,2052,
19958,1724,965,232,1769,49500,64845,96987,49500,,IMU->,8,-88,2046,2047,
19958,1728,960,215,1773,49500,64845,96987,49500,,IMU->,7,-90,2046,2047,
19958,1733,951,215,1773,49500,64845,96987,49500,,IMU->,4,-90,2049,2050,
19958,1724,960,208,1767,49500,64845,96987,49500,,IMU->,9,-88,2050,2051,
19958,1729,957,199,1767,49500,64845,96987,49500,,IMU->,5,-88,2047,2048,
19958,1729,955,198,1773,49500,64845,96987,49500,,IMU->,2,-88,2051,2052,
19958,1718,944,180,1767,49500,64845,96987,49500,,IMU->,4,-86,2049,2050,
19958,1716,942,163,1778,49500,64845,96987,49500,,IMU->,0,-90,2047,2048,
20324,1732,950,142,1776,49500,64845,96987,49500,,IMU->,3,-87,2052,2053,
19958,1734,939,126,1769,49500,64845,96987,49500,,IMU->,8,-85,2046,2047,
19958,1729,940,103,1775,49500,64845,96987,49500,,IMU->,4,-87,2043,2044,
19958,1731,940,130,1770,49500,64845,96987,49500,,IMU->,4,-87,2052,2053,
19958,1723,973,317,1769,49500,64845,96987,49500,,IMU->,5,-90,2049,2050,
19958,1722,1102,867,1764,49500,64845,96987,49500,,IMU->,6,-86,2051,2052,
19958,1715,1276,1516,1772,49500,64845,96987,49500,,IMU->,6,-87,2048,2049,
19958,1727,1426,1994,1778,49500,64845,96987,49500,,IMU->,10,-93,2049,2051,
20324,1726,1500,2233,1768,49500,64845,96987,49500,,IMU->,3,-86,2047,2048,
19958,1730,1518,2279,1770,49500,64845,96987,49500,,IMU->,5,-89,2050,2051,
19958,1723,1498,2128,1774,49500,64845,96987,49500,,IMU->,3,-87,2048,2049,
19958,1724,1431,1851,1769,49500,64845,96987,49500,,IMU->,5,-87,2049,2050,
19958,1729,1351,1493,1774,49500,64845,96987,49500,,IMU->,5,-88,2050,2051,
19958,1722,1252,1122,1772,49500,64845,96987,49500,,IMU->,6,-87,2049,2050,
19958,1725,1156,762,1772,49500,64845,96987,49500,,IMU->,5,-88,2049,2050,
19958,1727,1067,476,1769,49500,64845,96987,49500,,IMU->,8,-87,2050,2051,
19958,1716,1010,313,1762,49500,64845,96987,49500,,IMU->,5,-86,2051,2052,
20324,1715,981,237,1767,49500,64845,96987,49500,,IMU->,3,-83,2048,2049,
19958,1723,984,256,1765,49500,64845,96987,49500,,IMU->,4,-88,2052,2053,
19958,1724,1002,356,1771,49500,64845,96987,49500,,IMU->,4,-85,2048,2049,
19958,1719,1059,546,1769,49500,64845,96987,49500,,IMU->,3,-91,2053,2055,
19958,1724,1118,778,1767,49500,64845,96987,49500,,IMU->,6,-88,2051,2052,
19958,1722,1172,950,1769,49500,64845,96987,49500,,IMU->,6,-88,2049,2050,
19958,1719,1194,1031,1770,49500,64845,96987,49500,,IMU->,8,-87,2050,2051,
19958,1719,1204,1033,1767,49500,64845,96987,49500,,IMU->,4,-88,2050,2051,
20324,1720,1197,971,1770,49500,64845,96987,49500,,IMU->,3,-86,2050,2051,
19958,1723,1177,873,1773,49500,64845,96987,49500,,IMU->,2,-86,2048,2049,
19958,1725,1145,738,1778,49500,64845,96987,49500,,IMU->,2,-87,2049,2050,
19958,1721,1104,625,1770,49500,64845,96987,49500,,IMU->,5,-86,2046,2047,
19958,1721,1070,481,1763,49500,64845,96987,49500,,IMU->,3,-90,2047,2048,
19958,1714,1030,351,1761,49500,64845,96987,49500,,IMU->,3,-86,2054,2055,
19958,1719,999,273,1763,49500,64845,96987,49500,,IMU->,2,-86,2045,2046,
19958,1721,982,190,1772,49500,64845,96987,49500,,IMU->,6,-87,2049,2050,
19958,1715,960,142,1767,49500,64845,96987,49500,,IMU->,5,-86,2048,2049,
20324,1727,954,99,1773,49500,64845,96987,49500,,IMU->,3,-83,2051,2052,
19958,1724,948,75,1770,49500,64845,96987,49500,,IMU->,8,-87,2049,2050,
19958,1718,933,52,1764,49500,64845,96987,49500,,IMU->,2,-87,2051,2052,
19958,1728,927,30,1774,49500,64845,96987,49500,,IMU->,2,-88,2049,2050,
19958,1722,926,13,1763,49500,64845,96987,49500,,IMU->,3,-84,2050,2051,
19958,1722,924,9,1768,49500,64845,96987,49500,,IMU->,3,-85,2049,2050,
19927,1716,923,5,1764,49500,64845,96987,49500,,IMU->,8,-87,2050,2051,
20294,1710,926,10,1762,49500,64845,96987,49500,,IMU->,5,-87,2045,2046,
19958,1722,954,141,1766,49500,64845,96987,49500,,IMU->,6,-87,2047,2048,
19958,1719,1056,616,1763,49500,64845,96987,49500,,IMU->,4,-89,2048,2049,
19958,1717,1247,1369,1763,49500,64845,96987,49500,,IMU->,5,-89,2047,2048,
19958,1720,1429,1999,1772,49500,64845,96987,49500,,IMU->,3,-88,2051,2052,
19958,1731,1544,2405,1766,49500,64845,96987,49500,,IMU->,2,-86,2046,2047,
19958,1722,1592,2523,1774,49500,64845,96987,49500,,IMU->,4,-89,2052,2053,
19958,1722,1590,2447,1770,49500,64845,96987,49500,,IMU->,2,-88,2050,2051,
20324,1725,1530,2184,1763,49500,64845,96987,49500,,IMU->,5,-85,2047,2048,
19958,1717,1445,1845,1764,49500,64845,96987,49500,,IMU->,3,-86,2047,2048,
19958,1728,1349,1462,1767,49500,64845,96987,49500,,IMU->,6,-85,2050,2051,
19958,1725,1251,1090,1769,49500,64845,96987,49500,,IMU->,3,-85,2048,2049,
19958,1719,1157,755,1768,49500,64845,96987,49500,,IMU->,2,-85,2051,2052,
19958,1728,1082,495,1769,49500,64845,96987,49500,,IMU->,7,-87,2047,2048,
19958,1719,1038,351,1760,49500,64845,96987,49500,,IMU->,2,-88,2051,2052,
19958,1709,1021,335,1757,49500,64845,96987,49500,,IMU->,5,-86,2050,2051,
19958,1715,1034,389,1766,49500,64845,96987,49500,,IMU->,6,-86,2052,2053,
20324,1717,1067,555,1762,49500,64845,96987,49500,,IMU->,5,-88,2049,2050,
19958,1719,1137,825,1769,49500,64845,96987,49500,,IMU->,5,-89,2051,2052,
19958,1719,1208,1046,1763,49500,64845,96987,49500,,IMU->,0,-85,2050,2051,
19958,1718,1242,1179,1772,49500,64845,96987,49500,,IMU->,5,-88,2047,2048,
19958,1733,1260,1202,1769,49500,64845,96987,49500,,IMU->,2,-86,2049,2050,
19958,1719,1253,1153,1757,49500,64845,96987,49500,,IMU->,5,-86,2048,2049,
19958,1715,1228,1068,1766,49500,64845,96987,49500,,IMU->,9,-85,2046,2047,
19958,1719,1212,944,1769,49500,64845,96987,49500,,IMU->,3,-89,2049,2050,
20324,1718,1170,794,1758,49500,64845,96987,49500,,IMU->,4,-89,2049,2050,
19958,1724,1128,664,1773,49500,64845,96987,49500,,IMU->,1,-88,2052,2053,
19958,1720,1095,531,1770,49500,64845,96987,49500,,IMU->,3,-87,2050,2051,
19958,1718,1060,414,1763,49500,64845,96987,49500,,IMU->,8,-88,2049,2050,
19958,1720,1038,325,1761,49500,64845,96987,49500,,IMU->,1,-85,2046,2047,
19958,1717,1015,241,1756,49500,64845,96987,49500,,IMU->,5,-87,2048,2049,
19958,1713,994,199,1760,49500,64845,96987,49500,,IMU->,3,-94,2049,2051,
19958,1718,987,173,1765,49500,64845,96987,49500,,IMU->,4,-88,2050,2051,
19958,1719,981,154,1761,49500,64845,96987,49500,,IMU->,3,-89,2049,2050,
20324,1714,974,129,1763,49500,64845,96987,49500,,IMU->,3,-86,2048,2049,
19958,1719,972,128,1763,49500,64845,96987,49500,,IMU->,8,-88,2048,2049,
19958,1717,970,108,1764,49500,64845,96987,49500,,IMU->,9,-91,2047,2049,
19958,1721,966,108,1767,49500,64845,96987,49500,,IMU->,6,-88,2049,2050,
19958,1715,963,99,1761,49500,64845,96987,49500,,IMU->,5,-86,2049,2050,
19958,1709,970,103,1755,49500,64845,96987,49500,,IMU->,6,-90,2049,2050,
19958,1707,997,237,1753,49500,64845,96987,49500,,IMU->,8,-85,2048,2049,
19958,1709,1111,766,1766,49500,64845,96987,49500,,IMU->,6,-85,2049,2050,
20324,1715,1310,1575,1758,49500,64845,96987,49500,,IMU->,7,-90,2050,2051,
19989,1722,1508,2306,1765,49500,64845,96987,49500,,IMU->,4,-88,2050,2051,
19958,1723,1650,2775,1764,49500,64845,96987,49500,,IMU->,4,-88,2051,2052,
19958,1722,1699,2939,1763,49500,64845,96987,49500,,IMU->,3,-87,2047,2048,
19958,1724,1703,2885,1772,49500,64845,96987,49500,,IMU->,7,-87,2050,2051,
19958,1717,1660,2666,1756,49500,64845,96987,49500,,IMU->,5,-87,2048,2049,
19958,1714,1580,2362,1764,49500,64845,96987,49500,,IMU->,6,-89,2047,2048,
19958,1721,1507,2004,1768,49500,64845,96987,49500,,IMU->,5,-90,2051,2052,
19958,1718,1409,1652,1755,49500,64845,96987,49500,,IMU->,3,-87,2050,2051,
19958,1720,1314,1316,1767,49500,64845,96987,49500,,IMU->,6,-87,2048,2049,
20324,1720,1241,1029,1758,49500,64845,96987,49500,,IMU->,6,-89,2053,2054,
19958,1708,1176,829,1757,49500,64845,96987,49500,,IMU->,3,-90,2048,2049,
19958,1709,1162,780,1763,49500,64845,96987,49500,,IMU->,3,-87,2049,2050,
19958,1717,1169,849,1756,49500,64845,96987,49500,,IMU->,7,-86,2050,2051,
19958,1707,1209,1022,1759,49500,64845,96987,49500,,IMU->,5,-89,2048,2049,
19958,1715,1272,1269,1760,49500,64845,96987,49500,,IMU->,5,-87,2048,2049,
19958,1717,1331,1485,1756,49500,64845,96987,49500,,IMU->,5,-89,2053,2054,
19958,1705,1381,1619,1763,49500,64845,96987,49500,,IMU->,5,-86,2050,2051,
20324,1711,1391,1656,1754,49500,64845,96987,49500,,IMU->,4,-87,2047,2048,
19958,1710,1383,1594,1765,49500,64845,96987,49500,,IMU->,1,-91,2053,2055,
19958,1716,1366,1484,1767,49500,64845,96987,49500,,IMU->,10,-87,2047,2048,
19989,1719,1324,1340,1760,49500,64845,96987,49500,,IMU->,5,-88,2047,2048,
19958,1711,1279,1171,1758,49500,64845,96987,49500,,IMU->,2,-90,2052,2053,
19958,1712,1238,1017,1758,49500,64845,96987,49500,,IMU->,4,-87,2047,2048,
19958,1713,1199,873,1758,49500,64845,96987,49500,,IMU->,4,-87,2047,2048,
19958,1706,1161,745,1759,49500,64845,96987,49500,,IMU->,4,-91,2051,2053,
19958,1714,1138,646,1763,49500,64845,96987,49500,,IMU->,5,-92,2046,2048,
20324,1720,1122,560,1763,49500,64845,96987,49500,,IMU->,2,-87,2046,2047,
19958,1713,1095,506,1752,49500,64845,96987,49500,,IMU->,5,-88,2051,2052,
19958,1708,1092,476,1761,49500,64845,96987,49500,,IMU->,5,-88,2050,2051,
19958,1707,1080,460,1754,49500,64845,96987,49500,,IMU->,5,-88,2045,2046,
19958,1705,1066,447,1748,49500,64845,96987,49500,,IMU->,3,-85,2047,2048,
19958,1711,1073,436,1753,49500,64845,96987,49500,,IMU->,5,-88,2051,2052,
19958,1712,1077,464,1756,49500,64845,96987,49500,,IMU->,6,-86,2051,2052,
19958,1715,1084,456,1759,49500,64845,96987,49500,,IMU->,5,-88,2048,2049,
19958,1703,1073,449,1753,49500,64845,96987,49500,,IMU->,2,-85,2050,2051,
20324,1715,1066,430,1753,49500,64845,97284,49500,,IMU->,3,-87,2045,2046,
19958,1705,1071,695,1756,49500,64845,97284,49500,,IMU->,2,-88,2050,2051,
19958,1709,1052,654,1751,49500,64845,97284,49500,,IMU->,4,-90,2044,2045,
19958,1710,1037,601,1762,49500,64845,97284,49500,,IMU->,4,-87,2049,2050,
19958,1718,1032,556,1757,49500,64845,97284,49500,,IMU->,7,-86,2045,2046,
19958,1717,1024,531,1753,49500,64845,97284,49500,,IMU->,7,-85,2051,2052,
19958,1703,1042,621,1751,49500,64845,97284,49500,,IMU->,4,-87,2048,2049,
19958,1700,1143,1124,1745,49500,64845,97284,49500,,IMU->,4,-86,2047,2048,
20324,1702,1357,2005,1750,49500,64845,97284,49500,,IMU->,7,-87,2053,2054,
19958,1703,1571,2824,1752,49500,64845,97284,49500,,IMU->,9,-87,2050,2051,
19958,1716,1726,2976,1764,49500,64845,97284,49500,,IMU->,8,-90,2049,2050,
19958,1715,1789,2976,1766,49500,64845,97284,49500,,IMU->,6,-86,2048,2049,
19958,1714,1795,2975,1762,49500,64845,97284,49500,,IMU->,6,-89,2051,2052,
19958,1718,1766,2976,1764,49500,64845,97284,49500,,IMU->,4,-90,2050,2051,
19958,1712,1693,2978,1760,49500,64845,97284,49500,,IMU->,6,-86,2049,2050,
19958,1707,1615,2760,1760,49500,64845,97284,49500,,IMU->,4,-88,2048,2049,
19958,1697,1544,2448,1755,49500,64845,97284,49500,,IMU->,4,-90,2051,2052,
20324,1711,1469,2158,1755,49500,64845,97284,49500,,IMU->,4,-87,2048,2049,
19958,1720,1403,1871,1752,49500,64845,97284,49500,,IMU->,6,-88,2047,2048,
19958,1705,1333,1662,1753,49500,64845,97284,49500,,IMU->,6,-86,2050,2051,
19958,1705,1298,1580,1754,49500,64845,97284,49500,,IMU->,3,-87,2052,2053,
19958,1701,1305,1625,1749,49500,64845,97284,49500,,IMU->,2,-87,2051,2052,
19958,1699,1340,1761,1752,49500,64845,97284,49500,,IMU->,6,-85,2049,2050,
19958,1709,1396,1950,1763,49500,64845,97284,49500,,IMU->,4,-90,2046,2047,
19958,1708,1440,2131,1763,49500,64845,97284,49500,,IMU->,5,-87,2049,2050,
20324,1725,1472,2255,1763,49500,64845,97284,49500,,IMU->,5,-83,2051,2052,
19958,1714,1489,2275,1760,49500,64845,97284,49500,,IMU->,4,-86,2046,2047,
19958,1709,1478,2223,1748,49500,64845,97284,49500,,IMU->,0,-86,2052,2053,
19958,1709,1447,2100,1758,49500,64845,97284,49500,,IMU->,7,-91,2049,2051,
19958,1707,1417,1946,1750,49500,64845,97284,49500,,IMU->,2,-91,2048,2050,
19958,1716,1376,1803,1758,49500,64845,97284,49500,,IMU->,4,-90,2047,2048,
19958,1710,1348,1651,1759,49500,64845,97284,49500,,IMU->,6,-85,2046,2047,
19958,1712,1306,1504,1754,49500,64845,97284,49500,,IMU->,6,-87,2049,2050,
19958,1700,1264,1366,1758,49500,64845,97284,49500,,IMU->,5,-88,2045,2046,
20324,1708,1232,1267,1751,49500,64845,97284,49500,,IMU->,3,-84,2050,2051,
19958,1714,1214,1188,1755,49500,64845,97284,49500,,IMU->,7,-87,2051,2052,
19958,1709,1198,1137,1759,49500,64845,97284,49500,,IMU->,2,-91,2051,2053,
19958,1713,1180,1080,1750,49500,64845,97284,49500,,IMU->,5,-87,2048,2049,
19958,1712,1171,1052,1759,49500,64845,97284,49500,,IMU->,0,-88,2052,2053,
19958,1715,1171,1044,1754,49500,64845,97284,49500,,IMU->,3,-86,2046,2047,
19958,1707,1161,1033,1752,49500,64845,97284,49500,,IMU->,7,-88,2048,2049,
19958,1697,1156,1023,1751,49500,64845,97284,49500,,IMU->,4,-87,2052,2053,
20324,1710,1160,1022,1751,49500,64845,97284,49500,,IMU->,3,-88,2047,2048,
19958,1713,1154,1002,1761,49500,64845,97284,49500,,IMU->,6,-87,2051,2052,
19958,1719,1151,991,1757,49500,64845,97284,49500,,IMU->,3,-88,2047,2048,
19958,1716,1147,967,1756,49500,64845,97284,49500,,IMU->,3,-89,2049,2050,
19958,1711,1139,913,1755,49500,64845,97284,49500,,IMU->,5,-86,2051,2052,
19958,1707,1125,877,1751,49500,64845,97284,49500,,IMU->,6,-84,2050,2051,
19958,1710,1116,834,1757,49500,64845,97284,49500,,IMU->,3,-84,2049,2050,
19958,1708,1108,787,1751,49500,64845,97284,49500,,IMU->,3,-87,2049,2050,
19958,1699,1089,743,1753,49500,64845,97284,49500,,IMU->,4,-90,2050,2051,
20324,1706,1082,691,1754,49500,64845,97284,49500,,IMU->,3,-87,2051,2052,
19958,1710,1069,649,1754,49500,64845,97284,49500,,IMU->,1,-88,2047,2048,
19958,1715,1051,604,1758,49500,64845,97284,49500,,IMU->,5,-86,2051,2052,
19958,1708,1040,552,1753,49500,64845,97284,49500,,IMU->,5,-86,2047,2048,
19958,1706,1033,522,1756,49500,64845,97284,49500,,IMU->,8,-83,2052,2053,
19958,1710,1027,478,1760,49500,64845,97284,49500,,IMU->,5,-89,2046,2047,
19958,1708,1012,446,1754,49500,64845,97284,49500,,IMU->,4,-89,2050,2051,
19958,1707,998,403,1767,49500,64845,97284,49500,,IMU->,7,-89,2050,2051,
20324,1714,999,376,1752,49500,64845,97284,49500,,IMU->,8,-89,2049,2050,
19958,1704,981,355,1747,49500,64845,97284,49500,,IMU->,8,-88,2050,2051,
19958,1705,994,424,1753,49500,64845,97284,49500,,IMU->,0,-88,2050,2051,
19958,1706,1079,828,1751,49500,64845,97284,49500,,IMU->,4,-86,2051,2052,
19958,1705,1311,1795,1755,49500,64845,97284,49500,,IMU->,4,-89,2052,2053,
19958,1714,1562,2756,1765,49500,64845,97284,49500,,IMU->,5,-87,2048,2049,
19958,1715,1751,2980,1761,49500,64845,97284,49500,,IMU->,4,-88,2049,2050,
19958,1714,1837,2981,1766,49500,64845,97284,49500,,IMU->,4,-87,2052,2053,
19958,1712,1841,2979,1762,49500,64845,97284,49500,,IMU->,6,-91,2046,2048,
20324,1717,1816,2981,1764,49500,64845,97284,49500,,IMU->,3,-88,2052,2053,
19958,1720,1750,2975,1764,49500,64845,97284,49500,,IMU->,7,-86,2045,2046,
19958,1717,1671,2929,1759,49500,64845,97284,49500,,IMU->,5,-87,2045,2046,
19958,1712,1590,2591,1759,49500,64845,97284,49500,,IMU->,2,-88,2048,2049,
19958,1710,1519,2317,1759,49500,64845,97284,49500,,IMU->,6,-88,2048,2049,
19958,1707,1445,2036,1754,49500,64845,97284,49500,,IMU->,8,-87,2049,2050,
19958,1703,1377,1798,1753,49500,64845,97284,49500,,IMU->,4,-86,2053,2054,
19958,1709,1336,1688,1757,49500,64845,97284,49500,,IMU->,5,-85,2051,2052,
20324,1711,1336,1683,1757,49500,64845,97284,49500,,IMU->,5,-86,2048,2049,
19958,1709,1357,1793,1754,49500,64845,97284,49500,,IMU->,7,-88,2048,2049,
19958,1722,1405,1963,1767,49500,64845,97284,49500,,IMU->,3,-86,2048,2049,
19958,1716,1450,2148,1758,49500,64845,97284,49500,,IMU->,4,-88,2047,2048,
19958,1713,1488,2294,1763,49500,64845,97284,49500,,IMU->,4,-87,2048,2049,
19958,1716,1523,2362,1760,49500,64845,97284,49500,,IMU->,7,-88,2048,2049,
19958,1714,1515,2332,1755,49500,64845,97284,49500,,IMU->,2,-86,2049,2050,
19958,1709,1500,2215,1759,49500,64845,97284,49500,,IMU->,5,-84,2051,2052,
19958,1705,1460,2070,1763,49500,64845,97284,49500,,IMU->,2,-87,2047,2048,
20324,1712,1415,1906,1760,49500,64845,97284,49500,,IMU->,5,-87,2053,2054,
19958,1720,1385,1750,1766,49500,64845,97284,49500,,IMU->,2,-84,2050,2051,
19958,1722,1334,1602,1764,49500,64845,97284,49500,,IMU->,4,-85,2049,2050,
19958,1717,1296,1461,1764,49500,64845,97284,49500,,IMU->,4,-84,2048,2049,
19958,1718,1276,1363,1764,49500,64845,97284,49500,,IMU->,5,-86,2049,2050,
19958,1720,1247,1267,1758,49500,64845,97284,49500,,IMU->,4,-88,2048,2049,
19958,1709,1227,1205,1762,49500,64845,97284,49500,,IMU->,6,-87,2053,2054,
19958,1709,1210,1161,1761,49500,64845,97284,49500,,IMU->,3,-87,2048,2049,
20324,1714,1193,1115,1761,49500,64845,97284,49500,,IMU->,3,-88,2052,2053,
19958,1717,1188,1087,1764,49500,64845,97284,49500,,IMU->,2,-86,2050,2051,
19958,1719,1185,1097,1760,49500,64845,97284,49500,,IMU->,3,-89,2050,2051,
19958,1709,1184,1075,1761,49500,64845,97284,49500,,IMU->,2,-88,2049,2050,
19958,1713,1187,1090,1763,49500,64845,97284,49500,,IMU->,2,-86,2049,2050,
19958,1720,1187,1086,1761,49500,64845,97284,49500,,IMU->,1,-87,2051,2052,
19958,1706,1179,1063,1759,49500,64845,97284,49500,,IMU->,7,-84,2047,2048,
19958,1724,1171,1040,1764,49500,64845,97284,49500,,IMU->,4,-88,2049,2050,
19958,1707,1165,986,1761,49500,64845,97284,49500,,IMU->,5,-89,2048,2049,
20294,1717,1144,953,1755,49500,64845,97284,49500,,IMU->,5,-87,2049,2050,
19958,1720,1135,913,1764,49500,64845,97284,49500,,IMU->,4,-88,2051,2052,
19958,1711,1126,859,1759,49500,64845,97284,49500,,IMU->,1,-89,2051,2052,
19958,1709,1104,792,1764,49500,64845,97284,49500,,IMU->,6,-87,2050,2051,
19958,1716,1102,753,1771,49500,64845,97284,49500,,IMU->,3,-83,2050,2051,
19958,1722,1080,696,1764,49500,64845,97284,49500,,IMU->,6,-89,2047,2048,
19958,1719,1075,656,1771,49500,64845,97284,49500,,IMU->,6,-88,2046,2047,
20324,1725,1061,615,1761,49500,64845,97284,49500,,IMU->,5,-84,2049,2050,
19958,1715,1043,589,1761,49500,64845,97284,49500,,IMU->,8,-89,2046,2047,
19958,1717,1045,559,1769,49500,64845,97284,49500,,IMU->,3,-90,2049,2050,
19958,1722,1033,543,1762,49500,64845,97284,49500,,IMU->,2,-90,2050,2051,
19958,1716,1031,508,1767,49500,64845,97284,49500,,IMU->,7,-88,2050,2051,
19958,1725,1029,495,1767,49500,64845,97284,49500,,IMU->,8,-89,2048,2049,
19958,1715,1011,462,1765,49500,64845,97284,49500,,IMU->,7,-87,2050,2051,
19958,1714,1008,424,1768,49500,64845,97284,49500,,IMU->,4,-86,2056,2057,
19958,1715,999,394,1758,49500,64845,97284,49500,,IMU->,4,-89,2048,2049,
20324,1718,985,361,1759,49500,64845,97284,49500,,IMU->,4,-88,2047,2048,
19958,1714,990,355,1761,49500,64845,97284,49500,,IMU->,6,-90,2051,2052,
19958,1725,1007,428,1767,49500,64845,97284,49500,,IMU->,7,-85,2051,2052,
19958,1713,1080,799,1758,49500,64845,97284,49500,,IMU->,3,-85,2048,2049,
19958,1711,1285,1665,1754,49500,64845,97284,49500,,IMU->,6,-90,2052,2053,
19958,1717,1520,2548,1760,49500,64845,97284,49500,,IMU->,6,-90,2047,2048,
19958,1706,1685,2974,1755,49500,64845,97284,49500,,IMU->,4,-88,2048,2049,
19958,1706,1765,2978,1763,49500,64845,97284,49500,,IMU->,4,-83,2046,2047,
20324,1715,1789,2978,1767,49500,64845,97284,49500,,IMU->,2,-88,2051,2052,
19958,1723,1755,2972,1771,49500,64845,97284,49500,,IMU->,5,-88,2048,2049,
19958,1730,1683,2919,1773,49500,64845,97284,49500,,IMU->,5,-85,2047,2048,
19958,1723,1601,2578,1767,49500,64845,97284,49500,,IMU->,8,-88,2048,2049,
19958,1713,1503,2237,1763,49500,64845,97284,49500,,IMU->,4,-87,2052,2053,
19958,1720,1426,1920,1764,49500,64845,97284,49500,,IMU->,4,-86,2047,2048,
19958,1715,1341,1628,1756,49500,64845,97284,49500,,IMU->,4,-87,2050,2051,
19958,1715,1280,1392,1765,49500,64845,97284,49500,,IMU->,7,-90,2049,2050,
19958,1716,1248,1285,1763,49500,64845,97284,49500,,IMU->,4,-90,2049,2050,
20324,1715,1233,1300,1762,49500,64845,97284,49500,,IMU->,4,-89,2049,2050,
19958,1718,1272,1450,1766,49500,64845,97284,49500,,IMU->,5,-84,2048,2049,
19958,1719,1326,1666,1761,49500,64845,97284,49500,,IMU->,7,-87,2047,2048,
19958,1714,1387,1909,1765,49500,64845,97284,49500,,IMU->,2,-85,2052,2053,
19958,1719,1446,2078,1769,49500,64845,97284,49500,,IMU->,2,-88,2046,2047,
19958,1732,1468,2167,1769,49500,64845,97284,49500,,IMU->,3,-87,2047,2048,
19958,1721,1476,2136,1770,49500,64845,97284,49500,,IMU->,4,-88,2049,2050,
19958,1724,1458,2034,1763,49500,64845,97284,49500,,IMU->,4,-88,2051,2052,
20324,1723,1411,1870,1762,49500,64845,97284,49500,,IMU->,5,-86,2047,2048,
19927,1719,1370,1703,1764,49500,64845,97284,49500,,IMU->,6,-88,2046,2047,
19958,1718,1326,1549,1764,49500,64845,97284,49500,,IMU->,3,-86,2050,2051,
19958,1716,1289,1400,1769,49500,64845,97284,49500,,IMU->,1,-84,2048,2049,
19958,1719,1258,1269,1765,49500,64845,97284,49500,,IMU->,6,-87,2049,2050,
19958,1724,1225,1152,1769,49500,64845,97284,49500,,IMU->,7,-89,2049,2050,
19958,1713,1195,1065,1760,49500,64845,97284,49500,,IMU->,5,-88,2048,2049,
19989,1714,1175,1006,1764,49500,64680,96888,49500,,IMU->,2,-86,2047,2048,
19958,1713,1022,525,1764,49500,64680,96888,49500,,IMU->,5,-89,2046,2047,
20324,1717,1017,510,1756,49500,64680,96888,49500,,IMU->,4,-86,2048,2049,
19958,1720,1019,498,1764,49500,64680,96888,49500,,IMU->,6,-83,2051,2052,
19958,1722,1020,509,1764,49500,64680,96888,49500,,IMU->,3,-86,2047,2048,
19958,1720,1012,517,1761,49500,64680,96888,49500,,IMU->,6,-87,2051,2052,
19958,1720,1013,508,1763,49500,64680,96888,49500,,IMU->,6,-89,2050,2051,
19958,1707,1015,508,1748,49500,64680,96888,49500,,IMU->,6,-89,2051,2052,
19958,1706,1012,495,1763,49500,64680,96888,49500,,IMU->,4,-91,2048,2050,
19958,1714,1019,480,1759,49500,64680,96888,49500,,IMU->,5,-88,2051,2052,
20324,1719,1000,454,1758,49500,64680,96888,49500,,IMU->,4,-89,2046,2047,
19927,1717,1005,419,1767,49500,64680,96888,49500,,IMU->,7,-89,2050,2051,
19958,1716,994,383,1759,49500,64680,96888,49500,,IMU->,9,-89,2049,2050,
19958,1715,974,325,1759,49500,64680,96888,49500,,IMU->,6,-87,2050,2051,
19958,1709,960,275,1754,49500,64680,96888,49500,,IMU->,4,-82,2052,2053,
19958,1711,945,237,1756,49500,64680,96888,49500,,IMU->,5,-85,2051,2052,
19958,1708,930,168,1760,49500,64680,96888,49500,,IMU->,4,-88,2048,2049,
19958,1709,912,117,1762,49500,64680,96888,49500,,IMU->,5,-85,2045,2046,
20324,1718,906,67,1760,49500,64680,96888,49500,,IMU->,3,-87,2044,2045,
19927,1715,893,21,1761,49500,64680,96888,49500,,IMU->,4,-87,2050,2051,
19958,1713,878,1,1758,49500,64680,96888,49500,,IMU->,5,-87,2047,2048,
19927,1715,879,3,1756,49500,64680,96888,49500,,IMU->,6,-84,2054,2055,
19927,1709,888,22,1754,49500,64680,96888,49500,,IMU->,2,-85,2047,2048,
19958,1704,948,361,1752,49500,64680,96888,49500,,IMU->,5,-88,2049,2050,
19958,1708,1149,1176,1746,49500,64680,96888,49500,,IMU->,7,-86,2047,2048,
20324,1717,1375,1985,1759,49500,64680,96888,49500,,IMU->,8,-87,2051,2052,
19958,1712,1528,2554,1757,49500,64680,96888,49500,,IMU->,3,-89,2048,2049,
19958,1712,1603,2792,1757,49500,64680,96888,49500,,IMU->,5,-89,2047,2048,
19958,1718,1619,2781,1762,49500,64680,96888,49500,,IMU->,2,-87,2048,2049,
19958,1712,1581,2587,1758,49500,64680,96888,49500,,IMU->,3,-86,2050,2051,
19958,1714,1501,2278,1757,49500,64680,96888,49500,,IMU->,5,-85,2049,2050,
19958,1712,1422,1917,1762,49500,64680,96888,49500,,IMU->,5,-87,2048,2049,
19958,1713,1325,1558,1762,49500,64680,96888,49500,,IMU->,4,-88,2053,2054,
20324,1716,1234,1220,1758,49500,64680,96888,49500,,IMU->,8,-85,2044,2045,
19927,1713,1152,927,1756,49500,64680,96888,49500,,IMU->,3,-88,2051,2052,
19958,1717,1087,719,1757,49500,64680,96888,49500,,IMU->,7,-85,2050,2051,
19958,1705,1063,618,1754,49500,64680,96888,49500,,IMU->,4,-90,2050,2051,
19958,1708,1064,656,1751,49500,64680,96888,49500,,IMU->,6,-89,2052,2053,
19958,1710,1092,776,1764,49500,64680,96888,49500,,IMU->,5,-92,2052,2054,
19958,1711,1144,986,1754,49500,64680,96888,49500,,IMU->,2,-91,2050,2052,
19958,1707,1193,1221,1755,49500,64680,96888,49500,,IMU->,6,-86,2049,2050,
20324,1714,1251,1371,1762,49500,64680,96888,49500,,IMU->,6,-86,2050,2051,
19927,1716,1270,1426,1759,49500,64680,96888,49500,,IMU->,5,-91,2047,2049,
19958,1715,1269,1389,1770,49500,64680,96888,49500,,IMU->,5,-89,2045,2046,
19958,1715,1251,1278,1753,49500,64680,96888,49500,,IMU->,4,-88,2047,2048,
19958,1719,1215,1154,1756,49500,64680,96888,49500,,IMU->,3,-87,2052,2053,
19958,1710,1178,996,1759,49500,64680,96888,49500,,IMU->,4,-88,2050,2051,
19958,1708,1133,844,1755,49500,64680,96888,49500,,IMU->,3,-89,2053,2054,
19958,1697,1092,692,1762,49500,64680,96888,49500,,IMU->,0,-90,2048,2049,
20324,1719,1067,585,1759,49500,64680,96888,49500,,IMU->,5,-88,2052,2053,
19927,1718,1033,492,1757,49500,64680,96888,49500,,IMU->,4,-89,2050,2051,
19958,1706,1020,427,1765,49500,64680,96888,49500,,IMU->,3,-87,2050,2051,
19958,1713,1003,357,1752,49500,64680,96888,49500,,IMU->,1,-89,2050,2051,
19958,1714,982,314,1755,49500,64680,96888,49500,,IMU->,1,-88,2050,2051,
19958,1705,976,283,1755,49500,64680,96888,49500,,IMU->,5,-86,2048,2049,
19958,1705,971,267,1755,49500,64680,96888,49500,,IMU->,5,-91,2048,2050,
20324,1710,965,246,1754,49500,64680,96888,49500,,IMU->,5,-87,2052,2053,
19958,1708,959,256,1750,49500,64680,96888,49500,,IMU->,4,-87,2049,2050,
19927,1713,962,246,1758,49500,64680,96888,49500,,IMU->,7,-87,2048,2049,
19958,1707,959,235,1757,49500,64680,96888,49500,,IMU->,7,-87,2046,2047,
19958,1709,955,225,1754,49500,64680,96888,49500,,IMU->,6,-87,2048,2049,
19958,1706,950,204,1749,49500,64680,96888,49500,,IMU->,3,-90,2046,2047,
19958,1702,945,185,1751,49500,64680,96888,49500,,IMU->,2,-83,2050,2051,
19958,1712,940,162,1758,49500,64680,96888,49500,,IMU->,5,-88,2048,2049,
20324,1708,928,122,1750,49500,64680,96888,49500,,IMU->,5,-85,2049,2050,
19958,1706,909,88,1754,49500,64680,96888,49500,,IMU->,5,-90,2049,2050,
19927,1715,911,46,1761,49500,64680,96888,49500,,IMU->,7,-88,2050,2051,
19958,1715,900,14,1751,49500,64680,96888,49500,,IMU->,4,-87,2050,2051,
19958,1711,886,1,1759,49500,64680,96888,49500,,IMU->,4,-92,2052,2054,
19927,1707,887,0,1756,49500,64680,96888,49500,,IMU->,5,-87,2043,2044,
19927,1702,869,2,1757,49500,64680,96888,49500,,IMU->,3,-88,2049,2050,
20324,1708,868,0,1753,49500,64680,96888,49500,,IMU->,6,-89,2047,2048,
19897,1704,851,2,1756,49500,64680,96888,49500,,IMU->,3,-86,2049,2050,
19927,1714,842,0,1757,49500,64680,96888,49500,,IMU->,3,-86,2048,2049,
19927,1714,840,2,1758,49500,64680,96888,49500,,IMU->,2,-85,2048,2049,
20294,1702,831,1,1748,49500,64680,96888,49500,,IMU->,4,-87,2048,2049,
19958,1699,829,0,1756,49500,64680,96888,49500,,IMU->,8,-85,2049,2050,
19897,1710,845,1,1751,49500,64680,96888,49500,,IMU->,3,-89,2048,2049,
19927,1700,939,300,1751,49500,64680,96888,49500,,IMU->,7,-88,2050,2051,
19958,1697,1183,1293,1757,49500,64680,96888,49500,,IMU->,3,-87,2049,2050,
19958,1712,1420,2110,1756,49500,64680,96888,49500,,IMU->,8,-89,2048,2049,
19958,1704,1566,2627,1758,49500,64680,96888,49500,,IMU->,10,-88,2049,2050,
19989,1713,1636,2811,1761,49500,64680,96888,49500,,IMU->,3,-93,2047,2049,
20294,1718,1635,2778,1764,49500,64680,96888,49500,,IMU->,0,-87,2046,2047,
19927,1716,1591,2560,1760,49500,64680,96888,49500,,IMU->,4,-89,2049,2050,
19958,1716,1514,2263,1753,49500,64680,96888,49500,,IMU->,6,-85,2049,2050,
19958,1711,1441,1907,1759,49500,64680,96888,49500,,IMU->,3,-85,2049,2050,
19958,1708,1342,1599,1752,49500,64680,96888,49500,,IMU->,6,-87,2047,2048,
19958,1712,1268,1323,1761,49500,64680,96888,49500,,IMU->,5,-88,2050,2051,
19958,1696,1206,1063,1754,49500,64680,96888,49500,,IMU->,2,-86,2049,2050,
20324,1716,1139,859,1750,49500,64680,96888,49500,,IMU->,4,-89,2048,2049,
19958,1708,1108,742,1755,49500,64680,96888,49500,,IMU->,7,-90,2047,2048,
19927,1706,1098,740,1752,49500,64680,96888,49500,,IMU->,8,-88,2049,2050,
19958,1713,1117,823,1761,49500,64680,96888,49500,,IMU->,4,-85,2049,2050,
19958,1712,1164,1000,1754,49500,64680,96888,49500,,IMU->,5,-87,2048,2049,
19958,1705,1202,1181,1756,49500,64680,96888,49500,,IMU->,5,-89,2052,2053,
19958,1707,1253,1326,1766,49500,64680,96888,49500,,IMU->,6,-87,2047,2048,
20324,1716,1273,1378,1753,49500,64680,96888,49500,,IMU->,2,-83,2050,2051,
19958,1713,1274,1363,1757,49500,64680,96888,49500,,IMU->,3,-85,2046,2047,
19958,1714,1255,1280,1766,49500,64680,96888,49500,,IMU->,5,-87,2048,2049,
19927,1721,1222,1144,1763,49500,64680,96888,49500,,IMU->,3,-88,2047,2048,
19958,1719,1184,983,1757,49500,64680,96888,49500,,IMU->,2,-88,2049,2050,
19958,1713,1147,856,1755,49500,64680,96888,49500,,IMU->,4,-90,2047,2048,
19958,1708,1101,698,1754,49500,64680,96888,49500,,IMU->,2,-88,2050,2051,
19958,1706,1068,581,1768,49500,64680,96888,49500,,IMU->,4,-90,2048,2049,
20324,1715,1036,484,1758,49500,64680,96888,49500,,IMU->,7,-86,2048,2049,
19958,1706,1020,399,1759,49500,64680,96888,49500,,IMU->,6,-90,2049,2050,
19958,1720,1002,338,1759,49500,64680,96888,49500,,IMU->,5,-90,2051,2052,
19927,1726,990,285,1757,49500,64680,96888,49500,,IMU->,5,-90,2044,2045,
19958,1709,975,247,1761,49500,64680,96888,49500,,IMU->,5,-86,2054,2055,
19958,1712,971,233,1754,49500,64680,96888,49500,,IMU->,7,-90,2050,2051,
19958,1700,967,215,1749,49500,64680,96888,49500,,IMU->,10,-86,2048,2049,
19989,1696,955,217,1747,49500,64680,96888,49500,,IMU->,2,-90,2051,2052,
19958,1706,958,209,1767,49500,64680,96888,49500,,IMU->,7,-90,2046,2047,
20324,1712,957,180,1757,49500,64680,96888,49500,,IMU->,2,-88,2050,2051,
19989,1715,951,197,1758,49500,64680,96888,49500,,IMU->,5,-89,2048,2049,
19958,1712,959,175,1755,49500,64680,96888,49500,,IMU->,9,-87,2048,2049,
19958,1707,948,145,1750,49500,64680,96888,49500,,IMU->,5,-88,2046,2047,
19958,1715,935,121,1757,49500,64680,96888,49500,,IMU->,5,-88,2052,2053,
19958,1715,933,91,1755,49500,64680,96888,49500,,IMU->,5,-87,2049,2050,
19958,1706,915,70,1754,49500,64680,96888,49500,,IMU->,3,-86,2048,2049,
19958,1712,918,28,1757,49500,64680,96888,49500,,IMU->,4,-89,2049,2050,
19958,1698,906,2,1754,49500,64680,96888,49500,,IMU->,3,-85,2050,2051,
20294,1707,887,2,1756,49500,64680,96888,49500,,IMU->,6,-88,2048,2049,
19958,1709,884,0,1759,49500,64680,96888,49500,,IMU->,3,-86,2050,2051,
19927,1720,878,1,1758,49500,64680,96888,49500,,IMU->,5,-93,2049,2051,
19927,1712,863,1,1762,49500,64680,96888,49500,,IMU->,2,-86,2048,2049,
19927,1712,863,1,1761,49500,64680,96888,49500,,IMU->,11,-89,2048,2049,
20294,1713,850,3,1757,49500,64680,96888,49500,,IMU->,5,-88,2048,2049,
19927,1716,844,1,1756,49500,64680,96888,49500,,IMU->,3,-88,2048,2049,
19927,1707,828,0,1749,49500,64680,96888,49500,,IMU->,6,-85,2048,2049,
19927,1706,815,2,1757,49500,64680,96888,49500,,IMU->,7,-86,2047,2048,
19927,1708,816,0,1751,49500,64680,96888,49500,,IMU->,8,-87,2047,2048,
20294,1715,809,1,1755,49500,64680,96888,49500,,IMU->,4,-87,2048,2049,
19927,1707,808,2,1763,49500,64680,96888,49500,,IMU->,6,-90,2050,2051,
19927,1717,840,0,1757,49500,64680,96888,49500,,IMU->,2,-90,2049,2050,
19927,1711,987,500,1756,49500,64680,96888,49500,,IMU->,3,-92,2048,2050,
19958,1702,1233,1449,1751,49500,64680,96888,49500,,IMU->,4,-88,2049,2050,
19958,1716,1431,2121,1766,49500,64680,96888,49500,,IMU->,3,-89,2049,2050,
20324,1725,1549,2476,1762,49500,64680,96888,49500,,IMU->,6,-87,2051,2052,
19958,1719,1577,2561,1770,49500,64680,96888,49500,,IMU->,7,-88,2047,2048,
19989,1723,1566,2430,1773,49500,64680,96888,49500,,IMU->,8,-86,2049,2050,
19958,1718,1502,2150,1756,49500,64680,96888,49500,,IMU->,2,-92,2047,2049,
19958,1714,1409,1831,1762,49500,64680,96888,49500,,IMU->,3,-85,2050,2051,
19958,1714,1325,1500,1758,49500,64680,96888,49500,,IMU->,4,-86,2046,2047,
19958,1714,1230,1205,1757,49500,64680,96888,49500,,IMU->,4,-89,2047,2048,
19958,1713,1176,949,1768,49500,64680,96888,49500,,IMU->,6,-92,2051,2053,
19958,1716,1117,734,1764,49500,64680,96888,49500,,IMU->,6,-87,2050,2051,
20324,1724,1067,557,1769,49500,64680,96888,49500,,IMU->,4,-86,2046,2047,
19958,1715,1041,499,1762,49500,64680,96888,49500,,IMU->,8,-88,2053,2054,
19989,1714,1028,512,1758,49500,64746,97350,49500,,IMU->,7,-87,2051,2052,
19927,1715,1051,1205,1765,49500,64746,97350,49500,,IMU->,4,-89,2051,2052,
19927,1726,1093,1364,1757,49500,64746,97350,49500,,IMU->,4,-85,2051,2052,
19958,1713,1136,1531,1761,49500,64746,97350,49500,,IMU->,3,-89,2047,2048,
19958,1712,1182,1645,1770,49500,64746,97350,49500,,IMU->,7,-88,2050,2051,
19958,1718,1190,1679,1766,49500,64746,97350,49500,,IMU->,6,-86,2049,2050,
20324,1718,1179,1614,1761,49500,64746,97350,49500,,IMU->,10,-85,2049,2050,
19989,1717,1155,1521,1761,49500,64746,97350,49500,,IMU->,6,-87,2050,2051,
19958,1725,1131,1396,1767,49500,64746,97350,49500,,IMU->,3,-89,2049,2050,
19958,1721,1097,1259,1766,49500,64746,97350,49500,,IMU->,1,-87,2050,2051,
19958,1727,1056,1150,1770,49500,64746,97350,49500,,IMU->,4,-88,2048,2049,
19927,1721,1026,1022,1769,49500,64746,97350,49500,,IMU->,9,-87,2050,2051,
19958,1716,995,911,1758,49500,64746,97350,49500,,IMU->,8,-86,2051,2052,
19958,1717,957,825,1764,49500,64746,97350,49500,,IMU->,5,-89,2046,2047,
19958,1709,946,759,1763,49500,64746,97350,49500,,IMU->,3,-89,2048,2049,
20324,1717,925,709,1758,49500,64746,97350,49500,,IMU->,4,-87,2048,2049,
19958,1720,915,674,1768,49500,64746,97350,49500,,IMU->,2,-85,2052,2053,
19958,1721,907,643,1765,49500,64746,97350,49500,,IMU->,6,-86,2052,2053,
19958,1723,899,620,1768,49500,64746,97350,49500,,IMU->,4,-86,2047,2048,
19958,1719,895,595,1764,49500,64746,97350,49500,,IMU->,4,-88,2047,2048,
19958,1722,885,606,1761,49500,64746,97350,49500,,IMU->,4,-85,2049,2050,
19958,1714,891,601,1767,49500,64746,97350,49500,,IMU->,5,-86,2050,2051,
19958,1721,885,600,1769,49500,64746,97350,49500,,IMU->,3,-89,2052,2053,
20324,1729,879,582,1768,49500,64746,97350,49500,,IMU->,5,-89,2046,2047,
19958,1726,884,581,1765,49500,64746,97350,49500,,IMU->,5,-88,2048,2049,
19958,1719,870,558,1766,49500,64746,97350,49500,,IMU->,10,-90,2048,2050,
19989,1718,869,528,1768,49500,64746,97350,49500,,IMU->,8,-91,2049,2051,
19958,1719,862,509,1765,49500,64746,97350,49500,,IMU->,2,-90,2045,2046,
19927,1723,846,474,1766,49500,64746,97350,49500,,IMU->,5,-88,2051,2052,
19958,1722,842,455,1771,49500,64746,97350,49500,,IMU->,4,-88,2050,2051,
19958,1727,831,419,1769,49500,64746,97350,49500,,IMU->,5,-86,2048,2049,
19958,1710,825,381,1770,49500,64746,97350,49500,,IMU->,6,-87,2049,2050,
20324,1721,819,354,1771,49500,64746,97350,49500,,IMU->,4,-88,2048,2049,
19958,1729,807,335,1769,49500,64746,97350,49500,,IMU->,10,-89,2049,2050,
19989,1719,804,306,1766,49500,64746,97350,49500,,IMU->,6,-87,2052,2053,
19989,1724,788,288,1760,49500,64746,97350,49500,,IMU->,7,-86,2050,2051,
19958,1716,788,246,1768,49500,64746,97350,49500,,IMU->,5,-88,2052,2053,
19958,1718,777,218,1762,49500,64746,97350,49500,,IMU->,8,-88,2049,2050,
19958,1720,765,180,1768,49500,64746,97350,49500,,IMU->,5,-87,2050,2051,
19958,1717,764,151,1766,49500,64746,97350,49500,,IMU->,4,-85,2054,2055,
19958,1723,765,159,1766,49500,64746,97350,49500,,IMU->,2,-84,2047,2048,
19958,1716,786,268,1762,49500,64746,97350,49500,,IMU->,6,-85,2049,2050,
20324,1718,873,662,1757,49500,64746,97350,49500,,IMU->,3,-87,2051,2052,
19958,1719,1071,1466,1761,49500,64746,97350,49500,,IMU->,7,-87,2046,2047,
19958,1720,1269,2134,1758,49500,64746,97350,49500,,IMU->,6,-86,2052,2053,
19958,1714,1379,2490,1756,49500,64746,97350,49500,,IMU->,7,-87,2049,2050,
19927,1715,1429,2585,1761,49500,64746,97350,49500,,IMU->,4,-87,2047,2048,
19958,1713,1412,2471,1759,49500,64746,97350,49500,,IMU->,2,-87,2052,2053,
19958,1714,1359,2226,1765,49500,64746,97350,49500,,IMU->,3,-89,2048,2049,
20324,1715,1267,1914,1763,49500,64746,97350,49500,,IMU->,5,-88,2050,2051,
19958,1716,1181,1593,1760,49500,64746,97350,49500,,IMU->,3,-88,2046,2047,
19958,1715,1109,1289,1765,49500,64746,97350,49500,,IMU->,1,-90,2047,2048,
19958,1713,1038,1043,1763,49500,64746,97350,49500,,IMU->,3,-88,2047,2048,
19958,1726,974,843,1765,49500,64746,97350,49500,,IMU->,9,-86,2048,2049,
19927,1716,934,713,1755,49500,64746,97350,49500,,IMU->,5,-87,2052,2053,
19958,1713,902,655,1755,49500,64746,97350,49500,,IMU->,5,-87,2045,2046,
19958,1713,910,661,1766,49500,64746,97350,49500,,IMU->,7,-91,2046,2048,
20324,1709,921,723,1750,49500,64746,97350,49500,,IMU->,7,-87,2050,2051,
19958,1707,954,875,1755,49500,64746,97350,49500,,IMU->,5,-85,2051,2052,
19958,1715,1020,1076,1766,49500,64746,97350,49500,,IMU->,3,-89,2049,2050,
19958,1717,1068,1226,1758,49500,64746,97350,49500,,IMU->,4,-88,2048,2049,
19958,1714,1090,1281,1764,49500,64746,97350,49500,,IMU->,5,-86,2049,2050,
19927,1710,1089,1262,1762,49500,64746,97350,49500,,IMU->,3,-88,2044,2045,
19958,1716,1074,1188,1762,49500,64746,97350,49500,,IMU->,9,-87,2043,2044,
19958,1711,1045,1082,1763,49500,64746,97350,49500,,IMU->,8,-87,2050,2051,
20324,1718,1012,964,1754,49500,64746,97350,49500,,IMU->,3,-89,2047,2048,
19958,1715,984,837,1765,49500,64746,97350,49500,,IMU->,6,-89,2047,2048,
19958,1714,949,735,1760,49500,64746,97350,49500,,IMU->,7,-88,2051,2052,
19958,1721,915,638,1767,49500,64746,97350,49500,,IMU->,7,-86,2049,2050,
19958,1712,899,564,1758,49500,64746,97350,49500,,IMU->,8,-87,2053,2054,
19927,1716,878,515,1760,49500,64746,97350,49500,,IMU->,2,-83,2047,2048,
19958,1711,869,462,1757,49500,64746,97350,49500,,IMU->,4,-86,2049,2050,
19958,1699,854,429,1750,49500,64746,97350,49500,,IMU->,7,-89,2045,2046,
20324,1718,855,408,1764,49500,64746,97350,49500,,IMU->,5,-88,2050,2051,
19958,1717,844,380,1757,49500,64746,97350,49500,,IMU->,6,-88,2048,2049,
19958,1715,832,369,1760,49500,64746,97350,49500,,IMU->,7,-89,2047,2048,
19958,1709,835,354,1758,49500,64746,97350,49500,,IMU->,5,-85,2048,2049,
19958,1704,831,352,1743,49500,64746,97350,49500,,IMU->,6,-89,2050,2051,
19927,1709,828,358,1760,49500,64746,97350,49500,,IMU->,7,-89,2043,2044,
19958,1716,833,346,1757,49500,64746,97350,49500,,IMU->,1,-86,2046,2047,
20324,1713,827,348,1758,49500,64746,97350,49500,,IMU->,5,-86,2049,2050,
19958,1720,825,339,1762,49500,64746,97350,49500,,IMU->,5,-87,2048,2049,
19958,1711,827,319,1754,49500,64746,97350,49500,,IMU->,3,-89,2045,2046,
19958,1708,812,286,1758,49500,64746,97350,49500,,IMU->,4,-87,2052,2053,
19958,1707,817,275,1755,49500,64746,97350,49500,,IMU->,1,-91,2051,2053,
19958,1714,800,247,1751,49500,64746,97350,49500,,IMU->,2,-90,2045,2046,
19927,1706,803,221,1762,49500,64746,97350,49500,,IMU->,3,-89,2047,2048,
19958,1713,795,191,1762,49500,64746,97350,49500,,IMU->,3,-87,2051,2052,
20324,1720,780,154,1761,49500,64746,97350,49500,,IMU->,4,-89,2050,2051,
19958,1713,774,127,1757,49500,64746,97350,49500,,IMU->,3,-87,2052,2053,
19958,1710,761,89,1751,49500,64746,97350,49500,,IMU->,4,-84,2049,2050,
19958,1701,753,61,1754,49500,64746,97350,49500,,IMU->,2,-86,2052,2053,
19927,1706,761,103,1748,49500,64746,97350,49500,,IMU->,4,-86,2046,2047,
19927,1711,812,336,1753,49500,64746,97350,49500,,IMU->,4,-85,2052,2053,
19958,1706,973,977,1763,49500,64746,97350,49500,,IMU->,7,-87,2050,2051,
20324,1720,1190,1789,1756,49500,64746,97350,49500,,IMU->,5,-87,2044,2045,
19958,1709,1348,2307,1751,49500,64746,97350,49500,,IMU->,4,-87,2050,2051,
19958,1701,1419,2534,1754,49500,64746,97350,49500,,IMU->,5,-88,2051,2052,
19958,1716,1438,2530,1759,49500,64746,97350,49500,,IMU->,4,-88,2051,2052,
19958,1715,1402,2378,1746,49500,64746,97350,49500,,IMU->,6,-83,2049,2050,
19958,1706,1336,2108,1756,49500,64746,97350,49500,,IMU->,6,-87,2047,2048,
19927,1712,1262,1796,1762,49500,64746,97350,49500,,IMU->,2,-88,2048,2049,
19958,1701,1174,1486,1749,49500,64746,97350,49500,,IMU->,9,-88,2047,2048,
20324,1711,1098,1230,1752,49500,64746,97350,49500,,IMU->,5,-85,2049,2050,
19958,1709,1040,990,1753,49500,64746,97350,49500,,IMU->,4,-85,2047,2048,
19958,1710,974,818,1753,49500,64746,97350,49500,,IMU->,6,-86,2049,2050,
19958,1708,949,708,1757,49500,64746,97350,49500,,IMU->,2,-87,2051,2052,
19958,1714,941,685,1750,49500,64746,97350,49500,,IMU->,8,-88,2049,2050,
19958,1710,934,697,1753,49500,64746,97350,49500,,IMU->,1,-86,2048,2049,
19927,1702,960,799,1752,49500,64746,97350,49500,,IMU->,5,-88,2049,2050,
19958,1707,991,953,1748,49500,64746,97350,49500,,IMU->,4,-88,2049,2050,
20324,1701,1040,1114,1761,49500,64746,97350,49500,,IMU->,4,-86,2052,2053,
19958,1715,1091,1236,1759,49500,64746,97350,49500,,IMU->,7,-86,2051,2052,
19958,1705,1090,1245,1758,49500,64746,97350,49500,,IMU->,6,-91,2046,2048,
19958,1718,1086,1198,1773,49500,64746,97350,49500,,IMU->,6,-85,2045,2046,
19958,1724,1065,1115,1759,49500,64746,97350,49500,,IMU->,1,-84,2051,2052,
19958,1708,1028,997,1750,49500,64746,97350,49500,,IMU->,3,-89,2046,2047,
19927,1705,1002,891,1750,49500,64746,97350,49500,,IMU->,6,-88,2047,2048,
19958,1707,973,782,1757,49500,64746,97350,49500,,IMU->,4,-89,2052,2053,
20324,1705,943,679,1754,49500,64746,97350,49500,,IMU->,3,-88,2049,2050,
19958,1717,921,620,1761,49500,64746,97350,49500,,IMU->,2,-84,2049,2050,
19958,1717,906,545,1759,49500,64746,97350,49500,,IMU->,5,-86,2050,2051,
19958,1710,888,493,1753,49500,64746,97350,49500,,IMU->,7,-91,2052,2054,
19958,1713,877,446,1755,49500,64746,97350,49500,,IMU->,5,-86,2052,2053,
19958,1707,855,416,1751,49500,64746,97350,49500,,IMU->,1,-86,2048,2049,
19927,1704,847,391,1748,49500,64746,97350,49500,,IMU->,1,-86,2049,2050,
20324,1708,853,379,1748,49500,64746,97350,49500,,IMU->,6,-85,2049,2050,
19958,1707,839,369,1746,49500,64746,97350,49500,,IMU->,2,-87,2047,2048,
19958,1714,833,357,1759,49500,64746,97350,49500,,IMU->,2,-90,2048,2049,
19958,1710,838,342,1753,49500,64746,97350,49500,,IMU->,6,-85,2050,2051,
19958,1704,829,333,1747,49500,64746,97350,49500,,IMU->,6,-86,2046,2047,
19927,1707,841,327,1755,49500,64746,97350,49500,,IMU->,6,-85,2050,2051,
19927,1704,831,326,1749,49500,64746,97350,49500,,IMU->,6,-86,2049,2050,
19958,1707,830,317,1757,49500,64746,97350,49500,,IMU->,5,-87,2050,2051,
20324,1716,831,300,1753,49500,64746,97350,49500,,IMU->,6,-89,2048,2049,
19958,1713,820,298,1749,49500,64746,97350,49500,,IMU->,5,-87,2048,2049,
19958,1714,812,260,1756,49500,64746,97350,49500,,IMU->,6,-88,2051,2052,
19958,1716,810,242,1752,49500,64746,97350,49500,,IMU->,4,-86,2049,2050,
19958,1710,798,192,1749,49500,64746,97350,49500,,IMU->,6,-86,2049,2050,
19989,1702,789,169,1757,49500,64746,97350,49500,,IMU->,1,-89,2051,2052,
19958,1713,784,144,1755,49500,64746,97350,49500,,IMU->,7,-87,2048,2049,
19927,1703,773,95,1754,49500,64746,97350,49500,,IMU->,4,-85,2049,2050,
20324,1705,767,64,1751,49500,64746,97350,49500,,IMU->,5,-86,2050,2051,
19958,1716,763,102,1760,49500,64746,97350,49500,,IMU->,3,-91,2047,2049,
19958,1702,822,329,1750,49500,64746,97350,49500,,IMU->,6,-86,2048,2049,
19958,1708,972,984,1751,49500,64746,97350,49500,,IMU->,4,-90,2050,2051,
19958,1710,1202,1784,1752,49500,64746,97350,49500,,IMU->,3,-89,2049,2050,
19958,1706,1361,2321,1754,49500,64746,97350,49500,,IMU->,3,-89,2046,2047,
19958,1712,1452,2596,1759,49500,64746,97350,49500,,IMU->,2,-89,2048,2049,
19927,1710,1478,2643,1755,49500,64746,97350,49500,,IMU->,8,-87,2048,2049,
20324,1714,1441,2527,1752,49500,64746,97350,49500,,IMU->,4,-87,2046,2047,
19958,1708,1393,2291,1756,49500,64944,97647,49500,,IMU->,3,-88,2049,2050,
19958,1707,1612,2310,1751,49500,64944,97647,49500,,IMU->,3,-86,2047,2048,
19958,1711,1538,2032,1763,49500,64944,97647,49500,,IMU->,6,-87,2046,2047,
19958,1709,1466,1775,1750,49500,64944,97647,49500,,IMU->,3,-88,2047,2048,
19989,1702,1394,1528,1750,49500,64944,97647,49500,,IMU->,4,-84,2048,2049,
19958,1705,1339,1313,1759,49500,64944,97647,49500,,IMU->,4,-90,2048,2049,
19958,1703,1293,1166,1742,49500,64944,97647,49500,,IMU->,5,-90,2052,2053,
20294,1702,1264,1112,1749,49500,64944,97647,49500,,IMU->,2,-87,2053,2054,
19958,1706,1271,1126,1756,49500,64944,97647,49500,,IMU->,3,-88,2046,2047,
19958,1704,1288,1215,1744,49500,64944,97647,49500,,IMU->,4,-90,2048,2049,
19958,1710,1326,1349,1751,49500,64944,97647,49500,,IMU->,6,-87,2047,2048,
19958,1706,1371,1515,1749,49500,64944,97647,49500,,IMU->,4,-85,2049,2050,
19958,1710,1403,1610,1754,49500,64944,97647,49500,,IMU->,2,-87,2048,2049,
19958,1706,1418,1633,1750,49500,64944,97647,49500,,IMU->,5,-84,2046,2047,
19958,1703,1402,1605,1751,49500,64944,97647,49500,,IMU->,5,-90,2047,2048,
19958,1699,1392,1524,1752,49500,64944,97647,49500,,IMU->,4,-86,2048,2049,
20324,1705,1364,1429,1747,49500,64944,97647,49500,,IMU->,5,-86,2048,2049,
19958,1712,1333,1317,1756,49500,64944,97647,49500,,IMU->,5,-89,2050,2051,
19958,1711,1302,1185,1756,49500,64944,97647,49500,,IMU->,7,-88,2045,2046,
19958,1714,1264,1086,1753,49500,64944,97647,49500,,IMU->,6,-85,2052,2053,
19958,1707,1246,998,1757,49500,64944,97647,49500,,IMU->,8,-86,2048,2049,
19958,1704,1222,922,1747,49500,64944,97647,49500,,IMU->,3,-86,2050,2051,
19958,1709,1201,863,1749,49500,64944,97647,49500,,IMU->,4,-86,2046,2047,
19927,1695,1183,802,1751,49500,64944,97647,49500,,IMU->,2,-87,2052,2053,
20324,1704,1173,782,1752,49500,64944,97647,49500,,IMU->,5,-91,2048,2050,
19958,1708,1165,761,1753,49500,64944,97647,49500,,IMU->,6,-88,2045,2046,
19958,1709,1157,732,1748,49500,64944,97647,49500,,IMU->,4,-89,2045,2046,
19958,1711,1149,717,1757,49500,64944,97647,49500,,IMU->,3,-88,2049,2050,
19958,1706,1150,716,1756,49500,64944,97647,49500,,IMU->,5,-91,2047,2049,
19958,1704,1136,709,1745,49500,64944,97647,49500,,IMU->,4,-88,2049,2050,
19958,1700,1138,691,1748,49500,64944,97647,49500,,IMU->,5,-87,2047,2048,
20294,1700,1129,687,1746,49500,64944,97647,49500,,IMU->,5,-86,2050,2051,
19958,1714,1127,684,1757,49500,64944,97647,49500,,IMU->,6,-86,2048,2049,
19958,1705,1123,665,1754,49500,64944,97647,49500,,IMU->,4,-85,2046,2047,
19958,1712,1112,651,1751,49500,64944,97647,49500,,IMU->,4,-89,2050,2051,
19958,1709,1114,632,1755,49500,64944,97647,49500,,IMU->,4,-85,2051,2052,
19958,1706,1108,597,1748,49500,64944,97647,49500,,IMU->,4,-86,2049,2050,
19958,1710,1097,578,1760,49500,64944,97647,49500,,IMU->,4,-91,2048,2050,
19958,1709,1096,543,1763,49500,64944,97647,49500,,IMU->,5,-88,2048,2049,
20294,1705,1079,515,1754,49500,64944,97647,49500,,IMU->,3,-89,2046,2047,
19958,1714,1074,471,1758,49500,64944,97647,49500,,IMU->,4,-87,2047,2048,
19958,1707,1064,444,1750,49500,64944,97647,49500,,IMU->,4,-86,2048,2049,
19958,1700,1047,396,1751,49500,64944,97647,49500,,IMU->,2,-86,2049,2050,
19958,1703,1052,385,1751,49500,64944,97647,49500,,IMU->,5,-87,2052,2053,
19958,1705,1067,495,1755,49500,64944,97647,49500,,IMU->,2,-88,2051,2052,
19927,1708,1155,847,1764,49500,64944,97647,49500,,IMU->,6,-86,2049,2050,
20294,1705,1344,1568,1755,49500,64944,97647,49500,,IMU->,4,-87,2049,2050,
19958,1720,1499,2209,1759,49500,64944,97647,49500,,IMU->,6,-89,2048,2049,
19958,1716,1612,2551,1764,49500,64944,97647,49500,,IMU->,8,-89,2046,2047,
19958,1716,1640,2652,1758,49500,64944,97647,49500,,IMU->,5,-87,2048,2049,
19958,1709,1627,2570,1755,49500,64944,97647,49500,,IMU->,3,-88,2052,2053,
19958,1715,1592,2366,1761,49500,64944,97647,49500,,IMU->,2,-89,2046,2047,
19958,1716,1523,2100,1759,49500,64944,97647,49500,,IMU->,6,-85,2046,2047,
19958,1712,1439,1807,1763,49500,64944,97647,49500,,IMU->,6,-87,2050,2051,
20294,1707,1371,1564,1757,49500,64944,97647,49500,,IMU->,3,-83,2045,2046,
19958,1707,1309,1328,1756,49500,64944,97647,49500,,IMU->,5,-87,2048,2049,
19958,1709,1254,1158,1758,49500,64944,97647,49500,,IMU->,5,-86,2050,2051,
19958,1715,1209,1022,1767,49500,64944,97647,49500,,IMU->,5,-89,2048,2049,
19958,1714,1190,956,1760,49500,64944,97647,49500,,IMU->,6,-90,2047,2048,
19958,1717,1188,949,1759,49500,64944,97647,49500,,IMU->,6,-85,2050,2051,
19958,1715,1198,1001,1760,49500,64944,97647,49500,,IMU->,6,-89,2045,2046,
19958,1708,1221,1095,1750,49500,64944,97647,49500,,IMU->,5,-92,2046,2048,
20294,1714,1256,1229,1758,49500,64944,97647,49500,,IMU->,5,-86,2051,2052,
19958,1708,1293,1350,1764,49500,64944,97647,49500,,IMU->,1,-88,2052,2053,
19958,1709,1313,1408,1759,49500,64944,97647,49500,,IMU->,4,-87,2051,2052,
19958,1715,1326,1400,1770,49500,64944,97647,49500,,IMU->,3,-88,2051,2052,
19958,1720,1311,1354,1765,49500,64944,97647,49500,,IMU->,6,-87,2045,2046,
19958,1716,1291,1275,1767,49500,64944,97647,49500,,IMU->,8,-91,2050,2052,
19958,1719,1267,1172,1764,49500,64944,97647,49500,,IMU->,1,-88,2046,2047,
19958,1708,1238,1088,1760,49500,64944,97647,49500,,IMU->,1,-90,2050,2051,
20294,1717,1212,998,1763,49500,64944,97647,49500,,IMU->,4,-86,2047,2048,
19958,1717,1197,937,1757,49500,64944,97647,49500,,IMU->,4,-89,2046,2047,
19958,1712,1171,860,1764,49500,64944,97647,49500,,IMU->,4,-86,2047,2048,
19958,1716,1165,819,1764,49500,64944,97647,49500,,IMU->,2,-88,2049,2050,
19958,1718,1141,782,1755,49500,64944,97647,49500,,IMU->,4,-86,2049,2050,
19958,1706,1131,738,1756,49500,64944,97647,49500,,IMU->,3,-90,2049,2050,
19958,1702,1114,708,1752,49500,64944,97647,49500,,IMU->,3,-86,2044,2045,
19958,1711,1112,692,1756,49500,64944,97647,49500,,IMU->,4,-90,2046,2047,
20294,1707,1116,681,1757,49500,64944,97647,49500,,IMU->,4,-86,2049,2050,
19958,1714,1111,691,1763,49500,64944,97647,49500,,IMU->,4,-88,2050,2051,
19958,1716,1105,681,1759,49500,64944,97647,49500,,IMU->,6,-85,2049,2050,
19958,1710,1101,661,1752,49500,64944,97647,49500,,IMU->,4,-87,2050,2051,
19958,1715,1098,662,1758,49500,64944,97647,49500,,IMU->,6,-87,2047,2048,
19958,1711,1092,642,1755,49500,64944,97647,49500,,IMU->,1,-85,2049,2050,
19958,1713,1081,635,1756,49500,64944,97647,49500,,IMU->,4,-86,2050,2051,
19958,1710,1082,604,1769,49500,64944,97647,49500,,IMU->,2,-87,2049,2050,
20294,1713,1073,577,1757,49500,64944,97647,49500,,IMU->,7,-89,2048,2049,
19958,1718,1067,551,1764,49500,64944,97647,49500,,IMU->,4,-84,2049,2050,
19958,1711,1060,517,1753,49500,64944,97647,49500,,IMU->,5,-87,2045,2046,
19958,1705,1047,492,1747,49500,64944,97647,49500,,IMU->,2,-87,2051,2052,
19958,1711,1062,541,1754,49500,64944,97647,49500,,IMU->,4,-87,2049,2050,
19958,1704,1114,755,1748,49500,64944,97647,49500,,IMU->,5,-91,2051,2053,
19927,1704,1228,1234,1758,49500,64944,97647,49500,,IMU->,1,-87,2050,2051,
20294,1717,1418,1896,1759,49500,64944,97647,49500,,IMU->,8,-84,2047,2048,
19958,1709,1530,2305,1751,49500,64944,97647,49500,,IMU->,6,-88,2053,2054,
19958,1705,1591,2466,1758,49500,64944,97647,49500,,IMU->,6,-90,2051,2052,
19958,1708,1595,2439,1750,49500,64944,97647,49500,,IMU->,5,-86,2048,2049,
19958,1706,1556,2249,1751,49500,64944,97647,49500,,IMU->,5,-89,2050,2051,
19958,1707,1502,2004,1767,49500,64944,97647,49500,,IMU->,5,-84,2048,2049,
19958,1711,1431,1751,1761,49500,64944,97647,49500,,IMU->,3,-86,2049,2050,
19958,1697,1365,1484,1760,49500,64944,97647,49500,,IMU->,2,-91,2051,2053,
20294,1713,1294,1264,1757,49500,64944,97647,49500,,IMU->,9,-88,2048,2049,
19958,1710,1231,1073,1750,49500,64944,97647,49500,,IMU->,5,-91,2048,2050,
19958,1702,1193,946,1747,49500,64944,97647,49500,,IMU->,5,-86,2049,2050,
19958,1695,1171,886,1752,49500,64944,97647,49500,,IMU->,4,-85,2050,2051,
19958,1705,1171,879,1743,49500,64944,97647,49500,,IMU->,4,-85,2049,2050,
19958,1700,1179,912,1746,49500,64944,97647,49500,,IMU->,0,-87,2051,2052,
19958,1706,1202,1013,1756,49500,64944,97647,49500,,IMU->,3,-87,2050,2051,
19958,1703,1235,1119,1752,49500,64944,97647,49500,,IMU->,5,-87,2048,2049,
20324,1706,1279,1257,1754,49500,64944,97647,49500,,IMU->,5,-87,2050,2051,
19958,1708,1299,1327,1754,49500,64944,97647,49500,,IMU->,3,-86,2050,2051,
19958,1701,1307,1331,1749,49500,64944,97647,49500,,IMU->,1,-84,2050,2051,
19958,1711,1303,1292,1759,49500,64944,97647,49500,,IMU->,6,-87,2052,2053,
19958,1710,1282,1209,1752,49500,64944,97647,49500,,IMU->,6,-88,2051,2052,
19958,1709,1251,1118,1745,49500,64944,97647,49500,,IMU->,6,-86,2048,2049,
19958,1701,1230,1023,1750,49500,64944,97647,49500,,IMU->,8,-86,2048,2049,
19989,1704,1206,947,1743,49500,64944,97647,49500,,IMU->,4,-90,2052,2053,
19958,1697,1178,878,1756,49500,64944,97647,49500,,IMU->,5,-87,2046,2047,
20324,1713,1171,826,1760,49500,64944,97647,49500,,IMU->,6,-89,2046,2047,
19958,1709,1152,777,1748,49500,64944,97647,49500,,IMU->,3,-86,2048,2049,
19958,1704,1140,729,1755,49500,64944,97647,49500,,IMU->,6,-86,2045,2046,
19958,1713,1130,694,1759,49500,64944,97647,49500,,IMU->,6,-87,2050,2051,
19958,1707,1115,672,1745,49500,64944,97647,49500,,IMU->,8,-88,2052,2053,
19958,1701,1110,655,1750,49500,64944,97647,49500,,IMU->,7,-84,2048,2049,
19958,1710,1103,650,1749,49500,64944,97647,49500,,IMU->,7,-87,2049,2050,
19958,1700,1101,627,1756,49500,64944,97647,49500,,IMU->,6,-90,2046,2047,
20324,1710,1106,627,1748,49500,64944,97647,49500,,IMU->,3,-87,2050,2051,
19958,1707,1100,622,1752,49500,64944,97647,49500,,IMU->,6,-86,2050,2051,
19958,1704,1095,607,1757,49500,64944,97647,49500,,IMU->,3,-85,2046,2047,
19958,1713,1092,609,1751,49500,64944,97647,49500,,IMU->,8,-88,2049,2050,
19958,1707,1089,591,1753,49500,64944,97647,49500,,IMU->,5,-87,2050,2051,
19958,1710,1092,570,1748,49500,64944,97647,49500,,IMU->,3,-84,2050,2051,
19958,1714,1084,539,1756,49500,64944,97647,49500,,IMU->,3,-88,2046,2047,
19958,1701,1080,511,1753,49500,64944,97647,49500,,IMU->,7,-85,2050,2051,
19989,1694,1076,520,1750,49500,64944,97647,49500,,IMU->,5,-84,2048,2049,
20324,1703,1103,634,1745,49500,64944,97647,49500,,IMU->,6,-87,2043,2044,
19958,1697,1188,1003,1739,49500,64944,97647,49500,,IMU->,4,-87,2048,2049,
19958,1705,1359,1708,1750,49500,64944,97647,49500,,IMU->,8,-87,2049,2050,
19958,1707,1539,2305,1749,49500,64944,97647,49500,,IMU->,4,-89,2044,2045,
19958,1701,1640,2649,1746,49500,64944,97647,49500,,IMU->,6,-84,2050,2051,
19958,1700,1686,2756,1756,49500,64944,97647,49500,,IMU->,6,-84,2048,2049,
19958,1705,1690,2703,1753,49500,64944,97647,49500,,IMU->,7,-88,2045,2046,
19958,1709,1643,2510,1751,49500,64944,97647,49500,,IMU->,3,-87,2048,2049,
19958,1700,1586,2263,1759,49500,64944,97647,49500,,IMU->,4,-87,2051,2052,
20324,1706,1504,2007,1746,49500,64944,97647,49500,,IMU->,2,-85,2051,2052,
19958,1708,1441,1744,1749,49500,64944,97647,49500,,IMU->,6,-89,2048,2049,
19958,1706,1379,1517,1743,49500,64944,97647,49500,,IMU->,7,-87,2047,2048,
19958,1710,1317,1329,1751,49500,64944,97647,49500,,IMU->,4,-89,2048,2049,
19958,1709,1279,1185,1748,49500,64944,97647,49500,,IMU->,5,-89,2046,2047,
19958,1707,1253,1126,1743,49500,64944,97647,49500,,IMU->,4,-87,2050,2051,
19958,1700,1254,1131,1749,49500,64944,97647,49500,,IMU->,1,-86,2047,2048,
19958,1699,1276,1194,1748,49500,64878,97647,49500,,IMU->,1,-89,2051,2052,
20294,1707,1155,1324,1750,49500,64878,97647,49500,,IMU->,2,-88,2049,2050,
19958,1701,1198,1465,1752,49500,64878,97647,49500,,IMU->,2,-89,2047,2048,
19958,1705,1235,1585,1754,49500,64878,97647,49500,,IMU->,5,-88,2048,2049,
19958,1709,1254,1619,1756,49500,64878,97647,49500,,IMU->,4,-86,2050,2051,
19958,1705,1246,1606,1744,49500,64878,97647,49500,,IMU->,3,-86,2045,2046,
19958,1704,1231,1533,1750,49500,64878,97647,49500,,IMU->,1,-86,2050,2051,
19958,1702,1204,1436,1744,49500,64878,97647,49500,,IMU->,5,-86,2047,2048,
19958,1697,1167,1324,1744,49500,64878,97647,49500,,IMU->,3,-85,2053,2054,
20324,1699,1149,1225,1750,49500,64878,97647,49500,,IMU->,8,-90,2049,2050,
19958,1699,1116,1135,1748,49500,64878,97647,49500,,IMU->,2,-87,2047,2048,
19958,1709,1088,1053,1754,49500,64878,97647,49500,,IMU->,4,-87,2051,2052,
19958,1706,1074,979,1758,49500,64878,97647,49500,,IMU->,6,-84,2046,2047,
19958,1710,1055,935,1751,49500,64878,97647,49500,,IMU->,3,-88,2052,2053,
19958,1705,1040,869,1751,49500,64878,97647,49500,,IMU->,4,-91,2049,2051,
19958,1700,1029,846,1748,49500,64878,97647,49500,,IMU->,5,-87,2046,2047,
19958,1711,1025,831,1751,49500,64878,97647,49500,,IMU->,5,-86,2054,2055,
19958,1701,1023,799,1766,49500,64878,97647,49500,,IMU->,3,-87,2046,2047,
20324,1710,1006,795,1752,49500,64878,97647,49500,,IMU->,4,-90,2048,2049,
19958,1712,1010,780,1757,49500,64878,97647,49500,,IMU->,4,-86,2049,2050,
19958,1710,1011,790,1749,49500,64878,97647,49500,,IMU->,6,-89,2048,2049,
19958,1713,1003,785,1756,49500,64878,97647,49500,,IMU->,1,-91,2049,2051,
19958,1711,1008,773,1754,49500,64878,97647,49500,,IMU->,8,-89,2046,2047,
19958,1716,999,764,1754,49500,64878,97647,49500,,IMU->,7,-87,2049,2050,
19958,1713,995,763,1768,49500,64878,97647,49500,,IMU->,7,-87,2050,2051,
19958,1705,992,726,1760,49500,64878,97647,49500,,IMU->,5,-87,2049,2050,
20324,1714,981,706,1755,49500,64878,97647,49500,,IMU->,4,-83,2047,2048,
19958,1710,973,678,1753,49500,64878,97647,49500,,IMU->,2,-87,2052,2053,
19958,1711,956,635,1751,49500,64878,97647,49500,,IMU->,5,-88,2045,2046,
19958,1710,962,612,1763,49500,64878,97647,49500,,IMU->,5,-88,2046,2047,
19958,1709,968,648,1756,49500,64878,97647,49500,,IMU->,5,-90,2050,2051,
19958,1719,1016,870,1765,49500,64878,97647,49500,,IMU->,2,-87,2048,2049,
19958,1716,1174,1499,1766,49500,64878,97647,49500,,IMU->,9,-86,2047,2048,
19958,1716,1362,2208,1755,49500,64878,97647,49500,,IMU->,4,-88,2052,2053,
19958,1699,1498,2661,1757,49500,64878,97647,49500,,IMU->,4,-86,2051,2052,
20355,1710,1571,2895,1752,49500,64878,97647,49500,,IMU->,7,-86,2052,2053,
19958,1718,1580,2914,1754,49500,64878,97647,49500,,IMU->,3,-86,2049,2050,
19958,1706,1564,2794,1758,49500,64878,97647,49500,,IMU->,4,-88,2051,2052,
19958,1714,1515,2603,1756,49500,64878,97647,49500,,IMU->,4,-86,2049,2050,
19958,1712,1459,2355,1754,49500,64878,97647,49500,,IMU->,3,-88,2053,2054,
19958,1704,1393,2103,1748,49500,64878,97647,49500,,IMU->,4,-89,2050,2051,
19958,1706,1325,1883,1748,49500,64878,97647,49500,,IMU->,3,-90,2051,2052,
19958,1698,1273,1667,1748,49500,64878,97647,49500,,IMU->,5,-90,2049,2050,
19958,1695,1217,1492,1748,49500,64878,97647,49500,,IMU->,6,-88,2050,2051,
20324,1705,1182,1368,1754,49500,64878,97647,49500,,IMU->,4,-90,2049,2050,
19958,1709,1170,1339,1752,49500,64878,97647,49500,,IMU->,5,-87,2047,2048,
19958,1716,1181,1403,1755,49500,64878,97647,49500,,IMU->,5,-89,2051,2052,
19958,1709,1208,1513,1753,49500,64878,97647,49500,,IMU->,6,-85,2047,2048,
19958,1706,1239,1658,1755,49500,64878,97647,49500,,IMU->,6,-84,2050,2051,
19958,1706,1278,1789,1760,49500,64878,97647,49500,,IMU->,4,-88,2047,2048,
19958,1709,1305,1862,1755,49500,64878,97647,49500,,IMU->,4,-85,2051,2052,
19958,1704,1305,1850,1761,49500,64878,97647,49500,,IMU->,3,-91,2045,2047,
20324,1717,1304,1813,1763,49500,64878,97647,49500,,IMU->,6,-86,2051,2052,
19958,1709,1267,1712,1753,49500,64878,97647,49500,,IMU->,5,-87,2049,2050,
19958,1709,1240,1603,1762,49500,64878,97647,49500,,IMU->,6,-86,2046,2047,
19958,1713,1214,1492,1753,49500,64878,97647,49500,,IMU->,4,-86,2049,2050,
19958,1713,1180,1372,1753,49500,64878,97647,49500,,IMU->,5,-87,2049,2050,
19958,1718,1150,1272,1763,49500,64878,97647,49500,,IMU->,3,-84,2046,2047,
19958,1722,1123,1212,1765,49500,64878,97647,49500,,IMU->,2,-85,2052,2053,
19958,1717,1107,1135,1762,49500,64878,97647,49500,,IMU->,6,-88,2049,2050,
19958,1707,1086,1090,1760,49500,64878,97647,49500,,IMU->,1,-87,2047,2048,
20324,1713,1073,1060,1751,49500,64878,97647,49500,,IMU->,2,-86,2049,2050,
19958,1703,1065,1046,1752,49500,64878,97647,49500,,IMU->,6,-88,2052,2053,
19958,1713,1068,1041,1757,49500,64878,97647,49500,,IMU->,4,-88,2047,2048,
19958,1708,1063,1025,1755,49500,64878,97647,49500,,IMU->,4,-87,2047,2048,
19958,1713,1065,1025,1757,49500,64878,97647,49500,,IMU->,2,-91,2049,2051,
19958,1712,1066,1021,1757,49500,64878,97647,49500,,IMU->,6,-88,2048,2049,
19958,1707,1060,1001,1750,49500,64878,97647,49500,,IMU->,7,-88,2048,2049,
19958,1704,1048,995,1749,49500,64878,97647,49500,,IMU->,5,-87,2048,2049,
20324,1711,1049,976,1751,49500,64878,97647,49500,,IMU->,3,-87,2052,2053,
19958,1707,1048,959,1752,49500,64878,97647,49500,,IMU->,4,-88,2048,2049,
19958,1717,1046,929,1759,49500,64878,97647,49500,,IMU->,6,-88,2049,2050,
19958,1710,1034,897,1755,49500,64878,97647,49500,,IMU->,2,-87,2050,2051,
19958,1700,1023,873,1745,49500,64878,97647,49500,,IMU->,4,-87,2050,2051,
