,IMU->,11,-81,2052,2053,
20141,1632,1115,757,1684,49500,64383,96459,49500,,IMU->,12,-81,2048,2049,
20141,1650,1156,941,1685,49500,64383,96459,49500,,IMU->,11,-82,2048,2049,
19775,1654,1247,1269,1700,49500,64383,96459,49500,,IMU->,7,-83,2046,2047,
20141,1642,1368,1946,1697,49500,64383,96459,49500,,IMU->,9,-82,2048,2049,
20141,1655,1415,2543,1702,49500,64383,96459,49500,,IMU->,12,-82,2049,2050,
19775,1655,1425,2747,1698,49500,64383,96459,49500,,IMU->,10,-86,2051,2052,
20202,1651,1396,2702,1694,49500,64350,96294,49500,,IMU->,8,-84,2050,2051,
19775,1650,1209,2375,1697,49500,64350,96294,49500,,IMU->,7,-84,2050,2051,
20141,1642,1162,2169,1696,49500,64350,96294,49500,,IMU->,10,-87,2052,2053,
19775,1653,1113,1961,1700,49500,64350,96294,49500,,IMU->,12,-80,2050,2051,
20141,1648,1078,1758,1695,49500,64350,96294,49500,,IMU->,10,-83,2052,2053,
20141,1649,1035,1584,1694,49500,64350,96294,49500,,IMU->,14,-80,2046,2047,
19775,1652,1011,1403,1703,49500,64350,96294,49500,,IMU->,11,-82,2051,2052,
,IMU->,11,-80,2047,2048,
20019,1537,1021,653,1583,49500,75999,115665,49500,,IMU->,9,-82,2053,2054,
19958,1547,1021,649,1584,49500,75999,115665,49500,,IMU->,11,-78,2048,2049,
19989,1524,1010,616,1571,49500,75999,115665,49500,,IMU->,11,-79,2049,2050,
19958,1532,997,604,1579,49500,75999,115665,49500,,IMU->,12,-86,2049,2050,
19958,1544,1010,591,1582,49500,75999,115665,49500,,IMU->,8,-82,2047,2048,
19958,1528,999,556,1576,49500,75999,115665,49500,,IMU->,10,-81,2054,2055,
19958,1534,986,540,1587,49500,75999,115665,49500,,IMU->,14,-82,2049,2050,
19989,1534,989,508,1578,49500,75999,115665,49500,,IMU->,12,-79,2055,2056,
19958,1530,969,492,1580,49500,75999,115665,49500,,IMU->,8,-82,2049,2050,
19958,1523,966,464,1588,49500,75999,115665,49500,,IMU->,9,-82,2045,2046,
20324,1526,958,465,1567,49500,75999,115665,49500,,IMU->,5,-78,2048,2049,
19958,1539,988,537,1589,49500,75999,115665,49500,,IMU->,4,-80,2052,2053,
19958,1534,1058,779,1583,49500,75999,115665,49500,,IMU->,8,-78,2048,2049,
19958,1532,1157,1132,1576,49500,75999,115665,49500,,IMU->,12,-77,2051,2052,
19989,1533,1316,1607,1587,49500,75999,115665,49500,,IMU->,12,-80,2046,2047,
19958,1536,1465,2089,1577,49500,75999,115665,49500,,IMU->,11,-78,2049,2050,
19989,1536,1557,2314,1592,49500,75999,115665,49500,,IMU->,10,-82,2048,2049,
19989,1546,1576,2246,1590,49500,75999,115665,49500,,IMU->,11,-81,2049,2050,
19989,1533,1493,1978,1583,49500,75999,115665,49500,,IMU->,13,-81,2047,2048,
19958,1532,1404,1685,1594,49500,75999,115665,49500,,IMU->,5,-80,2047,2048,
19958,1540,1314,1429,1586,49500,75999,115665,49500,,IMU->,8,-81,2049,2050,
20324,1538,1244,1220,1582,49500,75999,115665,49500,,IMU->,7,-79,2050,2051,
19958,1538,1188,1071,1582,49500,75999,115665,49500,,IMU->,6,-80,2047,2048,
19958,1541,1146,957,1583,49500,75999,115665,49500,,IMU->,7,-78,2048,2049,
19958,1532,1115,869,1587,49500,75999,115665,49500,,IMU->,8,-81,2049,2050,
19958,1536,1111,856,1584,49500,75999,115665,49500,,IMU->,11,-82,2048,2049,
19989,1540,1114,849,1586,49500,75999,115665,49500,,IMU->,10,-81,2052,2053,
19958,1525,1130,907,1580,49500,75999,115665,49500,,IMU->,10,-84,2048,2049,
19989,1534,1144,972,1583,49500,75999,115665,49500,,IMU->,10,-80,2051,2052,
19958,1540,1179,1014,1584,49500,75999,115665,49500,,IMU->,11,-80,2048,2049,
19989,1527,1177,1053,1575,49500,75999,115665,49500,,IMU->,10,-82,2048,2049,
19958,1532,1186,1080,1590,49500,75999,115665,49500,,IMU->,10,-77,2054,2055,
20324,1532,1195,1048,1581,49500,75999,115665,49500,,IMU->,10,-75,2049,2050,
19958,1535,1171,1022,1581,49500,75999,115665,49500,,IMU->,10,-77,2047,2048,
19989,1533,1161,955,1586,49500,75999,115665,49500,,IMU->,9,-80,2052,2053,
19958,1530,1137,904,1580,49500,75999,115665,49500,,IMU->,10,-80,2047,2048,
19989,1543,1122,842,1589,49500,75999,115665,49500,,IMU->,10,-79,2051,2052,
19958,1539,1094,774,1580,49500,75999,115665,49500,,IMU->,9,-79,2050,2051,
19958,1528,1058,707,1574,49500,75999,115665,49500,,IMU->,7,-78,2050,2051,
19958,1534,1065,685,1587,49500,75999,115665,49500,,IMU->,10,-79,2047,2048,
19989,1532,1056,663,1569,49500,75999,115665,49500,,IMU->,8,-80,2051,2052,
19958,1521,1031,632,1578,49500,75999,115665,49500,,IMU->,10,-81,2046,2047,
19989,1539,1046,608,1594,49500,75999,115665,49500,,IMU->,9,-86,2048,2049,
20324,1548,1035,601,1578,49500,75999,115665,49500,,IMU->,11,-82,2047,2048,
19958,1530,1023,572,1586,49500,75999,115665,49500,,IMU->,8,-79,2046,2047,
19958,1536,1023,561,1580,49500,75999,115665,49500,,IMU->,10,-76,2048,2049,
19989,1531,1010,538,1580,49500,75999,115665,49500,,IMU->,10,-79,2048,2049,
19989,1523,1018,537,1580,49500,75999,115665,49500,,IMU->,9,-83,2052,2053,
19958,1536,1017,542,1577,49500,75999,115665,49500,,IMU->,11,-79,2046,2047,
19958,1527,1019,518,1586,49500,75999,115665,49500,,IMU->,12,-79,2048,2049,
19989,1539,1017,521,1581,49500,75999,115665,49500,,IMU->,9,-77,2048,2049,
19958,1546,1014,508,1581,49500,75999,115665,49500,,IMU->,6,-76,2046,2047,
19958,1529,1010,501,1583,49500,75999,115665,49500,,IMU->,11,-81,2051,2052,
19989,1525,1002,504,1577,49500,75999,115665,49500,,IMU->,10,-82,2046,2047,
20324,1530,1003,470,1576,49500,75999,115665,49500,,IMU->,9,-79,2048,2049,
19958,1523,990,461,1578,49500,75999,115665,49500,,IMU->,9,-78,2049,2050,
19958,1542,999,449,1585,49500,75999,115665,49500,,IMU->,8,-78,2051,2052,
19958,1529,985,410,1579,49500,75999,115665,49500,,IMU->,12,-83,2050,2051,
19958,1535,968,411,1582,49500,75999,115665,49500,,IMU->,14,-77,2049,2050,
19989,1537,979,375,1583,49500,75999,115665,49500,,IMU->,12,-80,2050,2051,
19958,1525,967,402,1568,49500,75999,115665,49500,,IMU->,9,-78,2049,2050,
19958,1534,1013,589,1584,49500,75999,115665,49500,,IMU->,9,-80,2045,2046,
19958,1528,1140,948,1590,49500,75999,115665,49500,,IMU->,12,-79,2050,2051,
19989,1537,1295,1511,1579,49500,75999,115665,49500,,IMU->,10,-78,2051,2052,
19989,1543,1516,2192,1595,49500,75999,115665,49500,,IMU->,11,-78,2050,2051,
19989,1544,1667,2584,1588,49500,75999,115665,49500,,IMU->,10,-80,2049,2050,
20324,1542,1695,2622,1594,49500,75999,115665,49500,,IMU->,12,-78,2046,2047,
19989,1537,1651,2413,1589,49500,75999,115665,49500,,IMU->,10,-78,2050,2051,
19958,1542,1553,2102,1586,49500,75999,115665,49500,,IMU->,7,-80,2047,2048,
19958,1540,1449,1765,1595,49500,75999,115665,49500,,IMU->,8,-79,2045,2046,
19958,1540,1368,1518,1589,49500,75999,115665,49500,,IMU->,7,-81,2048,2049,
19958,1545,1297,1340,1583,49500,75999,115665,49500,,IMU->,7,-79,2049,2050,
19958,1531,1267,1224,1581,49500,75999,115830,49500,,IMU->,8,-80,2051,2052,
19958,1538,1221,1276,1575,49500,75999,115830,49500,,IMU->,10,-79,2049,2050,
19989,1527,1183,1194,1585,49500,75999,115830,49500,,IMU->,10,-76,2046,2047,
19989,1546,1185,1188,1586,49500,75999,115830,49500,,IMU->,9,-79,2051,2052,
20324,1547,1199,1207,1585,49500,75999,115830,49500,,IMU->,6,-80,2052,2053,
19958,1536,1217,1271,1590,49500,75999,115830,49500,,IMU->,9,-79,2051,2052,
19958,1543,1238,1347,1584,49500,75999,115830,49500,,IMU->,8,-78,2049,2050,
19958,1531,1264,1391,1582,49500,75999,115830,49500,,IMU->,10,-80,2051,2052,
19989,1525,1270,1450,1578,49500,75999,115830,49500,,IMU->,7,-79,2047,2048,
19958,1540,1285,1453,1590,49500,75999,115830,49500,,IMU->,5,-76,2051,2052,
19958,1534,1265,1388,1587,49500,75999,115830,49500,,IMU->,13,-80,2048,2049,
19989,1537,1240,1341,1591,49500,75999,115830,49500,,IMU->,14,-81,2050,2051,
19989,1545,1229,1269,1591,49500,75999,115830,49500,,IMU->,10,-78,2048,2049,
19958,1531,1216,1225,1576,49500,75999,115830,49500,,IMU->,7,-79,2048,2049,
19958,1530,1176,1162,1582,49500,75999,115830,49500,,IMU->,10,-80,2048,2049,
19989,1531,1174,1094,1581,49500,75999,115830,49500,,IMU->,9,-82,2050,2051,
20324,1545,1146,1055,1579,49500,75999,115830,49500,,IMU->,7,-82,2048,2049,
19958,1534,1148,1040,1596,49500,75999,115830,49500,,IMU->,7,-82,2048,2049,
19958,1538,1131,995,1586,49500,75999,115830,49500,,IMU->,11,-80,2049,2050,
19989,1545,1112,954,1586,49500,75999,115830,49500,,IMU->,15,-78,2052,2053,
19958,1539,1106,931,1582,49500,75999,115830,49500,,IMU->,12,-82,2052,2053,
19989,1526,1096,913,1574,49500,75999,115830,49500,,IMU->,11,-80,2049,2050,
19958,1534,1098,896,1587,49500,75999,115830,49500,,IMU->,10,-79,2050,2051,
19989,1535,1096,895,1574,49500,75999,115830,49500,,IMU->,6,-79,2047,2048,
19958,1531,1078,874,1578,49500,75999,115830,49500,,IMU->,10,-77,2051,2052,
19958,1533,1106,872,1596,49500,75999,115830,49500,,IMU->,7,-78,2050,2051,
20324,1543,1082,859,1573,49500,75999,115830,49500,,IMU->,9,-84,2049,2050,
19958,1527,1072,837,1581,49500,75999,115830,49500,,IMU->,11,-81,2049,2050,
19989,1536,1073,822,1581,49500,75999,115830,49500,,IMU->,7,-82,2049,2050,
19958,1543,1065,810,1584,49500,75999,115830,49500,,IMU->,7,-78,2046,2047,
19958,1534,1061,783,1588,49500,75999,115830,49500,,IMU->,11,-80,2049,2050,
19958,1534,1047,766,1583,49500,75999,115830,49500,,IMU->,14,-79,2048,2049,
19958,1533,1041,721,1585,49500,75999,115830,49500,,IMU->,10,-81,2046,2047,
19989,1532,1033,722,1570,49500,75999,115830,49500,,IMU->,9,-83,2049,2050,
19958,1534,1022,691,1577,49500,75999,115830,49500,,IMU->,10,-79,2047,2048,
19989,1529,1017,666,1581,49500,75999,115830,49500,,IMU->,9,-79,2050,2051,
19958,1529,1005,659,1576,49500,75999,115830,49500,,IMU->,10,-77,2045,2046,
20324,1533,1004,613,1583,49500,75999,115830,49500,,IMU->,7,-78,2049,2050,
19958,1529,1003,608,1583,49500,75999,115830,49500,,IMU->,10,-80,2048,2049,
19989,1537,994,606,1579,49500,75999,115830,49500,,IMU->,11,-81,2046,2047,
19958,1525,1006,654,1580,49500,75999,115830,49500,,IMU->,6,-77,2051,2052,
19958,1529,1086,950,1579,49500,75999,115830,49500,,IMU->,8,-77,2052,2053,
19958,1537,1249,1437,1588,49500,75999,115830,49500,,IMU->,8,-80,2052,2053,
19958,1534,1439,2074,1579,49500,75999,115830,49500,,IMU->,7,-81,2048,2049,
19958,1543,1607,2606,1589,49500,75999,115830,49500,,IMU->,8,-79,2048,2049,
19958,1539,1719,2854,1599,49500,75999,115830,49500,,IMU->,7,-78,2048,2049,
20324,1546,1713,2806,1582,49500,75999,115830,49500,,IMU->,10,-81,2048,2049,
19989,1535,1640,2518,1588,49500,75999,115830,49500,,IMU->,8,-82,2044,2045,
19958,1544,1530,2168,1582,49500,75999,115830,49500,,IMU->,13,-80,2050,2051,
19989,1542,1435,1881,1586,49500,75999,115830,49500,,IMU->,8,-76,2048,2049,
19958,1539,1369,1675,1590,49500,75999,115830,49500,,IMU->,8,-81,2052,2053,
19958,1543,1306,1527,1581,49500,75999,115830,49500,,IMU->,12,-79,2053,2054,
19989,1539,1272,1374,1589,49500,75999,115830,49500,,IMU->,9,-81,2049,2050,
19958,1532,1236,1294,1577,49500,75999,115830,49500,,IMU->,9,-79,2050,2051,
19958,1537,1215,1265,1579,49500,75999,115830,49500,,IMU->,11,-79,2053,2054,
19958,1535,1222,1263,1587,49500,75999,115830,49500,,IMU->,7,-81,2051,2052,
19958,1519,1219,1294,1578,49500,75999,115830,49500,,IMU->,11,-79,2049,2050,
20324,1531,1239,1327,1586,49500,75999,115830,49500,,IMU->,7,-80,2050,2051,
19989,1537,1283,1434,1588,49500,75999,115830,49500,,IMU->,10,-82,2049,2050,
19958,1540,1288,1481,1590,49500,75999,115830,49500,,IMU->,11,-80,2049,2050,
19989,1524,1290,1481,1587,49500,75999,115830,49500,,IMU->,13,-81,2048,2049,
19958,1540,1289,1481,1585,49500,75999,115830,49500,,IMU->,10,-81,2053,2054,
19958,1537,1290,1449,1580,49500,75999,115830,49500,,IMU->,6,-82,2049,2050,
19958,1526,1266,1391,1579,49500,75999,115830,49500,,IMU->,5,-80,2050,2051,
19958,1539,1241,1327,1585,49500,75999,115830,49500,,IMU->,11,-79,2047,2048,
19958,1530,1216,1237,1582,49500,75999,115830,49500,,IMU->,10,-81,2048,2049,
19989,1542,1191,1201,1578,49500,75999,115830,49500,,IMU->,13,-78,2049,2050,
20324,1536,1180,1138,1585,49500,75999,115830,49500,,IMU->,6,-79,2049,2050,
19958,1531,1162,1098,1580,49500,75999,115830,49500,,IMU->,9,-77,2049,2050,
19958,1537,1142,1053,1585,49500,75999,115830,49500,,IMU->,6,-81,2050,2051,
19989,1536,1140,1020,1585,49500,75999,115830,49500,,IMU->,8,-80,2048,2049,
19958,1530,1121,990,1581,49500,75999,115830,49500,,IMU->,9,-81,2052,2053,
19958,1532,1122,964,1582,49500,75999,115830,49500,,IMU->,10,-81,2049,2050,
19989,1533,1107,940,1572,49500,75999,115830,49500,,IMU->,9,-86,2050,2051,
19958,1538,1093,942,1581,49500,75999,115830,49500,,IMU->,6,-80,2050,2051,
19989,1533,1099,916,1582,49500,75999,115830,49500,,IMU->,5,-80,2051,2052,
19958,1527,1098,928,1581,49500,75999,115830,49500,,IMU->,11,-78,2045,2046,
19989,1531,1095,904,1585,49500,75999,115830,49500,,IMU->,10,-79,2045,2046,
19958,1530,1088,883,1576,49500,75999,115830,49500,,IMU->,6,-78,2048,2049,
20324,1532,1076,853,1581,49500,75999,115830,49500,,IMU->,11,-76,2047,2048,
19958,1537,1081,860,1585,49500,75999,115830,49500,,IMU->,6,-80,2049,2050,
19958,1535,1072,857,1575,49500,75999,115830,49500,,IMU->,11,-76,2050,2051,
19989,1526,1063,825,1584,49500,75999,115830,49500,,IMU->,12,-78,2049,2050,
19989,1532,1065,816,1583,49500,75999,115830,49500,,IMU->,10,-80,2049,2050,
19958,1539,1059,801,1581,49500,75999,115830,49500,,IMU->,10,-80,2049,2050,
19958,1526,1048,761,1579,49500,75999,115830,49500,,IMU->,12,-79,2049,2050,
19989,1530,1035,755,1581,49500,75999,115830,49500,,IMU->,8,-81,2052,2053,
19958,1535,1030,722,1583,49500,75999,115830,49500,,IMU->,10,-80,2050,2051,
19989,1526,1027,698,1578,49500,75999,115830,49500,,IMU->,6,-76,2055,2056,
19958,1527,1013,693,1581,49500,75999,115830,49500,,IMU->,8,-77,2050,2051,
20324,1526,1007,661,1580,49500,75999,115830,49500,,IMU->,10,-76,2049,2050,
19958,1534,999,654,1575,49500,75999,115830,49500,,IMU->,12,-78,2052,2053,
19989,1534,995,619,1578,49500,75999,115830,49500,,IMU->,10,-77,2053,2054,
19958,1529,987,601,1579,49500,75999,115830,49500,,IMU->,7,-80,2050,2051,
19989,1544,975,584,1582,49500,75999,115830,49500,,IMU->,10,-76,2046,2047,
19989,1527,972,537,1580,49500,75999,115830,49500,,IMU->,10,-82,2049,2050,
19989,1529,957,560,1578,49500,75999,115830,49500,,IMU->,10,-84,2048,2049,
19958,1532,1016,723,1580,49500,75999,115830,49500,,IMU->,14,-79,2050,2051,
19958,1522,1115,1043,1567,49500,75999,115830,49500,,IMU->,12,-80,2049,2050,
19989,1535,1248,1523,1587,49500,75999,115830,49500,,IMU->,9,-76,2053,2054,
19958,1544,1434,2056,1592,49500,75999,115830,49500,,IMU->,3,-82,2049,2050,
19958,1532,1566,2455,1585,49500,75999,115830,49500,,IMU->,6,-80,2050,2051,
19989,1546,1603,2477,1600,49500,75999,115830,49500,,IMU->,9,-80,2049,2050,
20324,1540,1562,2279,1583,49500,75999,115830,49500,,IMU->,11,-80,2055,2056,
19958,1534,1469,1985,1582,49500,75999,115830,49500,,IMU->,5,-81,2049,2050,
19958,1532,1387,1695,1585,49500,75999,115830,49500,,IMU->,12,-79,2047,2048,
19989,1536,1284,1464,1577,49500,75999,115830,49500,,IMU->,12,-79,2043,2044,
19989,1539,1227,1284,1593,49500,75999,115830,49500,,IMU->,12,-79,2053,2054,
19989,1543,1188,1137,1581,49500,75999,115830,49500,,IMU->,11,-85,2051,2052,
19989,1537,1138,1049,1581,49500,75999,115830,49500,,IMU->,13,-80,2045,2046,
19958,1540,1124,974,1591,49500,75999,115830,49500,,IMU->,9,-80,2049,2050,
19958,1530,1108,944,1572,49500,75999,115830,49500,,IMU->,8,-78,2052,2053,
19958,1528,1095,951,1580,49500,75999,115830,49500,,IMU->,9,-80,2043,2044,
19958,1533,1140,1019,1580,49500,75999,115830,49500,,IMU->,11,-79,2049,2050,
20324,1545,1148,1078,1583,49500,75999,115830,49500,,IMU->,9,-81,2049,2050,
19958,1536,1167,1132,1588,49500,75999,115830,49500,,IMU->,10,-80,2048,2049,
19989,1540,1177,1162,1584,49500,75999,115830,49500,,IMU->,10,-78,2052,2053,
19958,1536,1181,1157,1584,49500,75999,115830,49500,,IMU->,6,-81,2050,2051,
19958,1531,1172,1122,1577,49500,75999,115830,49500,,IMU->,9,-78,2049,2050,
19958,1541,1149,1080,1583,49500,75999,115830,49500,,IMU->,14,-79,2046,2047,
19958,1530,1140,1021,1584,49500,75999,115830,49500,,IMU->,11,-81,2053,2054,
19958,1531,1110,968,1580,49500,75999,115830,49500,,IMU->,11,-80,2049,2050,
19989,1532,1103,908,1590,49500,75999,115830,49500,,IMU->,7,-79,2048,2049,
19958,1528,1077,843,1574,49500,75999,115830,49500,,IMU->,8,-79,2047,2048,
20324,1534,1047,804,1578,49500,75999,115830,49500,,IMU->,9,-80,2051,2052,
19958,1538,1055,768,1585,49500,75999,115830,49500,,IMU->,8,-82,2052,2053,
19958,1535,1028,741,1576,49500,75999,115830,49500,,IMU->,8,-81,2050,2051,
19958,1538,1027,698,1589,49500,75999,115830,49500,,IMU->,7,-79,2050,2051,
19958,1537,1018,653,1578,49500,75999,115830,49500,,IMU->,7,-80,2051,2052,
19958,1536,992,647,1578,49500,75999,115830,49500,,IMU->,9,-81,2050,2051,
19958,1526,998,631,1585,49500,75999,115830,49500,,IMU->,12,-79,2046,2047,
19958,1527,981,606,1569,49500,75999,115830,49500,,IMU->,12,-81,2048,2049,
19989,1529,978,587,1587,49500,75999,115830,49500,,IMU->,7,-79,2049,2050,
20324,1536,992,583,1580,49500,75999,115830,49500,,IMU->,9,-78,2052,2053,
19958,1540,978,590,1580,49500,75999,115830,49500,,IMU->,9,-78,2046,2047,
19958,1543,979,577,1589,49500,75999,115830,49500,,IMU->,8,-80,2049,2050,
19958,1538,978,571,1571,49500,75999,115830,49500,,IMU->,7,-79,2045,2046,
19958,1513,962,545,1575,49500,75999,115830,49500,,IMU->,10,-78,2049,2050,
19958,1525,972,543,1581,49500,75999,115830,49500,,IMU->,9,-75,2045,2046,
19958,1537,956,532,1576,49500,75999,115830,49500,,IMU->,10,-80,2050,2051,
19989,1519,960,520,1581,49500,75999,115830,49500,,IMU->,10,-80,2051,2052,
19989,1535,959,509,1586,49500,75999,115830,49500,,IMU->,10,-78,2047,2048,
19958,1536,957,500,1584,49500,75999,115830,49500,,IMU->,14,-80,2047,2048,
20324,1523,947,476,1576,49500,75999,115830,49500,,IMU->,12,-85,2050,2051,
19958,1532,941,470,1573,49500,75999,115830,49500,,IMU->,10,-81,2051,2052,
19989,1523,937,439,1580,49500,75999,115830,49500,,IMU->,8,-79,2049,2050,
19958,1531,936,447,1578,49500,75999,115830,49500,,IMU->,12,-79,2050,2051,
19989,1537,926,412,1585,49500,75999,115830,49500,,IMU->,11,-79,2051,2052,
19989,1532,929,392,1584,49500,75999,115830,49500,,IMU->,10,-80,2047,2048,
19989,1545,913,378,1586,49500,75999,115830,49500,,IMU->,13,-79,2048,2049,
19958,1529,918,363,1578,49500,75999,115929,49500,,IMU->,9,-80,2050,2051,
19958,1522,908,535,1576,49500,75999,115929,49500,,IMU->,7,-81,2046,2047,
19958,1533,966,691,1589,49500,75999,115929,49500,,IMU->,10,-79,2048,2049,
19989,1531,1074,1007,1571,49500,75999,115929,49500,,IMU->,6,-79,2050,2051,
19958,1527,1196,1457,1584,49500,75999,115929,49500,,IMU->,12,-81,2049,2050,
19989,1544,1358,1899,1600,49500,75999,115929,49500,,IMU->,6,-80,2048,2049,
20324,1538,1466,2231,1578,49500,75999,115929,49500,,IMU->,8,-79,2050,2051,
19958,1532,1503,2273,1589,49500,75999,115929,49500,,IMU->,11,-81,2049,2050,
19989,1540,1469,2079,1584,49500,75999,115929,49500,,IMU->,8,-79,2047,2048,
19958,1539,1370,1788,1579,49500,75999,115929,49500,,IMU->,12,-81,2050,2051,
19989,1533,1295,1531,1593,49500,75999,115929,49500,,IMU->,10,-78,2049,2050,
19989,1542,1228,1336,1585,49500,75999,115929,49500,,IMU->,8,-77,2048,2049,
19958,1536,1158,1145,1578,49500,75999,115929,49500,,IMU->,9,-80,2048,2049,
19958,1525,1115,1018,1575,49500,75999,115929,49500,,IMU->,12,-84,2042,2043,
19958,1536,1080,938,1580,49500,75999,115929,49500,,IMU->,11,-80,2053,2054,
19989,1526,1062,885,1586,49500,75999,115929,49500,,IMU->,9,-81,2048,2049,
19958,1527,1059,877,1584,49500,75999,115929,49500,,IMU->,8,-78,2048,2049,
20324,1535,1063,893,1584,49500,75999,115929,49500,,IMU->,10,-83,2049,2050,
19958,1529,1087,962,1585,49500,75999,115929,49500,,IMU->,10,-79,2048,2049,
19989,1540,1114,1031,1580,49500,75999,115929,49500,,IMU->,10,-81,2053,2054,
19958,1525,1122,1068,1573,49500,75999,115929,49500,,IMU->,8,-76,2047,2048,
19958,1527,1129,1099,1579,49500,75999,115929,49500,,IMU->,10,-81,2054,2055,
19989,1537,1145,1108,1579,49500,75999,115929,49500,,IMU->,9,-80,2048,2049,
19958,1535,1146,1083,1573,49500,75999,115929,49500,,IMU->,12,-78,2052,2053,
19989,1536,1126,1051,1586,49500,75999,115929,49500,,IMU->,9,-80,2047,2048,
19958,1540,1114,985,1588,49500,75999,115929,49500,,IMU->,7,-79,2048,2049,
19958,1526,1080,929,1577,49500,75999,115929,49500,,IMU->,9,-83,2048,2049,
19958,1522,1082,886,1584,49500,75999,115929,49500,,IMU->,9,-80,2050,2051,
20355,1531,1057,825,1573,49500,75999,115929,49500,,IMU->,12,-81,2051,2052,
19958,1534,1024,807,1576,49500,75999,115929,49500,,IMU->,10,-80,2048,2049,
19989,1541,1028,761,1588,49500,75999,115929,49500,,IMU->,9,-81,2050,2051,
19958,1536,1014,747,1578,49500,75999,115929,49500,,IMU->,11,-81,2048,2049,
19958,1539,1005,721,1587,49500,75999,115929,49500,,IMU->,9,-83,2051,2052,
19958,1535,996,675,1579,49500,75999,115929,49500,,IMU->,11,-77,2051,2052,
19989,1537,980,658,1574,49500,75999,115929,49500,,IMU->,10,-77,2048,2049,
19989,1532,992,656,1583,49500,75999,115929,49500,,IMU->,8,-84,2052,2053,
19958,1528,978,645,1575,49500,75999,115929,49500,,IMU->,9,-81,2051,2052,
19958,1529,965,626,1582,49500,75999,115929,49500,,IMU->,14,-79,2050,2051,
19989,1526,973,604,1575,49500,75999,115929,49500,,IMU->,5,-77,2050,2051,
19958,1523,963,608,1577,49500,75999,115929,49500,,IMU->,10,-79,2050,2051,
20324,1540,962,594,1588,49500,75999,115929,49500,,IMU->,8,-81,2047,2048,
19958,1533,960,607,1588,49500,75999,115929,49500,,IMU->,8,-81,2048,2049,
19958,1530,956,573,1579,49500,75999,115929,49500,,IMU->,12,-78,2053,2054,
19958,1530,962,576,1584,49500,75999,115929,49500,,IMU->,9,-80,2047,2048,
19958,1540,950,572,1579,49500,75999,115929,49500,,IMU->,6,-78,2050,2051,
19958,1522,943,531,1578,49500,75999,115929,49500,,IMU->,8,-78,2050,2051,
19958,1524,929,511,1575,49500,75999,115929,49500,,IMU->,10,-84,2051,2052,
19958,1531,931,501,1585,49500,75999,115929,49500,,IMU->,8,-78,2049,2050,
20324,1531,936,489,1582,49500,75999,115929,49500,,IMU->,11,-79,2049,2050,
19989,1538,934,543,1583,49500,75999,115929,49500,,IMU->,9,-80,2046,2047,
19958,1535,998,747,1592,49500,75999,115929,49500,,IMU->,10,-79,2047,2048,
19989,1535,1113,1109,1574,49500,75999,115929,49500,,IMU->,12,-77,2048,2049,
19989,1530,1270,1629,1585,49500,75999,115929,49500,,IMU->,9,-79,2049,2050,
19958,1536,1453,2159,1589,49500,75999,115929,49500,,IMU->,8,-81,2048,2049,
19958,1550,1558,2449,1588,49500,75999,115929,49500,,IMU->,10,-78,2048,2049,
19958,1545,1585,2446,1594,49500,75999,115929,49500,,IMU->,6,-80,2047,2048,
19958,1539,1549,2282,1587,49500,75999,115929,49500,,IMU->,8,-78,2046,2047,
19958,1546,1462,1969,1590,49500,75999,115929,49500,,IMU->,9,-78,2050,2051,
19958,1527,1360,1650,1582,49500,75999,115929,49500,,IMU->,9,-84,2048,2049,
20324,1537,1260,1424,1586,49500,75999,115929,49500,,IMU->,9,-78,2047,2048,
19958,1541,1221,1272,1593,49500,75999,115929,49500,,IMU->,13,-79,2054,2055,
19989,1541,1167,1126,1577,49500,75999,115929,49500,,IMU->,13,-82,2047,2048,
19958,1538,1114,1016,1589,49500,75999,115929,49500,,IMU->,13,-83,2052,2053,
19989,1537,1103,968,1586,49500,75999,115929,49500,,IMU->,11,-80,2050,2051,
19989,1538,1092,957,1578,49500,75999,115929,49500,,IMU->,9,-79,2049,2050,
19958,1534,1095,966,1585,49500,75999,115929,49500,,IMU->,9,-83,2051,2052,
19958,1534,1115,1039,1581,49500,75999,115929,49500,,IMU->,6,-76,2045,2046,
19958,1530,1129,1078,1584,49500,75999,115929,49500,,IMU->,8,-80,2052,2053,
19958,1534,1159,1134,1584,49500,75999,115929,49500,,IMU->,10,-80,2050,2051,
19989,1544,1159,1156,1583,49500,75999,115929,49500,,IMU->,8,-80,2052,2053,
20324,1532,1163,1140,1586,49500,75999,115929,49500,,IMU->,10,-82,2046,2047,
19958,1531,1152,1113,1576,49500,75999,115929,49500,,IMU->,10,-80,2054,2055,
19989,1533,1131,1068,1584,49500,75999,115929,49500,,IMU->,8,-84,2052,2053,
19958,1538,1121,1004,1596,49500,75999,115929,49500,,IMU->,9,-85,2050,2051,
19958,1545,1095,957,1582,49500,75999,115929,49500,,IMU->,12,-82,2052,2053,
19989,1539,1074,890,1589,49500,75999,115929,49500,,IMU->,11,-80,2044,2045,
19958,1538,1067,859,1579,49500,75999,115929,49500,,IMU->,11,-80,2046,2047,
19989,1535,1043,805,1575,49500,75999,115929,49500,,IMU->,9,-80,2048,2049,
19958,1525,1034,770,1579,49500,75999,115929,49500,,IMU->,9,-77,2048,2049,
19958,1537,1018,747,1584,49500,75999,115929,49500,,IMU->,11,-79,2049,2050,
19989,1529,1023,727,1593,49500,75999,115929,49500,,IMU->,10,-81,2047,2048,
20324,1536,1011,699,1580,49500,75999,115929,49500,,IMU->,8,-78,2045,2046,
19958,1543,1004,688,1580,49500,75999,115929,49500,,IMU->,9,-83,2045,2046,
19958,1536,1009,668,1578,49500,75999,115929,49500,,IMU->,6,-80,2052,2053,
19958,1529,985,653,1578,49500,75999,115929,49500,,IMU->,11,-82,2046,2047,
19958,1531,980,631,1583,49500,75999,115929,49500,,IMU->,12,-81,2048,2049,
19958,1530,979,627,1578,49500,75999,115929,49500,,IMU->,8,-81,2049,2050,
19958,1539,983,623,1589,49500,75999,115929,49500,,IMU->,8,-78,2053,2054,
19958,1536,983,612,1588,49500,75999,115929,49500,,IMU->,11,-82,2047,2048,
19958,1536,965,606,1584,49500,75999,115929,49500,,IMU->,7,-81,2051,2052,
20324,1538,974,579,1589,49500,75999,115929,49500,,IMU->,9,-80,2050,2051,
19989,1531,972,580,1576,49500,75999,115929,49500,,IMU->,13,-81,2048,2049,
19958,1530,955,567,1584,49500,75999,115929,49500,,IMU->,11,-80,2049,2050,
19989,1536,965,548,1585,49500,75999,115929,49500,,IMU->,10,-80,2047,2048,
19958,1540,949,541,1580,49500,75999,115929,49500,,IMU->,7,-80,2051,2052,
19958,1541,951,521,1590,49500,75999,115929,49500,,IMU->,8,-81,2050,2051,
19958,1539,943,501,1578,49500,75999,115929,49500,,IMU->,9,-84,2047,2048,
19958,1536,932,502,1577,49500,75999,115929,49500,,IMU->,11,-80,2049,2050,
19989,1525,967,610,1581,49500,75999,115929,49500,,IMU->,9,-80,2049,2050,
19958,1537,1056,903,1581,49500,75999,115929,49500,,IMU->,5,-82,2048,2049,
19958,1534,1183,1329,1591,49500,75999,115929,49500,,IMU->,9,-82,2052,2053,
20324,1552,1379,1941,1588,49500,75999,115929,49500,,IMU->,7,-79,2050,2051,
19958,1551,1551,2489,1592,49500,75999,115929,49500,,IMU->,8,-77,2048,2049,
19958,1537,1643,2675,1590,49500,75999,115929,49500,,IMU->,6,-82,2049,2050,
19958,1547,1624,2582,1592,49500,75999,115929,49500,,IMU->,6,-80,2049,2050,
19958,1544,1565,2326,1594,49500,75999,115929,49500,,IMU->,10,-81,2047,2048,
19989,1541,1466,2020,1592,49500,75999,115929,49500,,IMU->,10,-81,2048,2049,
19958,1548,1371,1729,1594,49500,75999,115929,49500,,IMU->,9,-79,2048,2049,
19958,1544,1288,1479,1590,49500,75999,115929,49500,,IMU->,10,-81,2052,2053,
19989,1535,1218,1323,1586,49500,75999,115929,49500,,IMU->,10,-81,2049,2050,
20324,1542,1171,1182,1584,49500,75999,115929,49500,,IMU->,10,-78,2051,2052,
19958,1535,1136,1106,1585,49500,75999,115929,49500,,IMU->,7,-79,2047,2048,
19958,1554,1120,1061,1590,49500,75999,115929,49500,,IMU->,7,-83,2048,2049,
19958,1538,1135,1062,1585,49500,75999,115929,49500,,IMU->,7,-81,2049,2050,
19958,1538,1137,1110,1592,49500,75999,115929,49500,,IMU->,7,-79,2056,2057,
19958,1549,1169,1164,1598,49500,75999,115929,49500,,IMU->,13,-80,2048,2049,
19989,1536,1168,1215,1574,49500,75999,115929,49500,,IMU->,11,-81,2049,2050,
19958,1532,1186,1270,1579,49500,75999,115929,49500,,IMU->,7,-82,2049,2050,
19958,1531,1208,1292,1587,49500,75999,115929,49500,,IMU->,12,-79,2053,2054,
19989,1529,1199,1281,1580,49500,75999,115929,49500,,IMU->,9,-81,2045,2046,
20324,1541,1190,1213,1596,49500,75999,115929,49500,,IMU->,8,-85,2051,2052,
19958,1548,1178,1183,1587,49500,75999,115929,49500,,IMU->,9,-79,2051,2052,
19958,1543,1155,1119,1583,49500,75999,115929,49500,,IMU->,10,-78,2049,2050,
19958,1537,1133,1052,1586,49500,75999,115929,49500,,IMU->,8,-81,2049,2050,
19958,1536,1096,995,1579,49500,75999,115929,49500,,IMU->,11,-78,2050,2051,
19989,1538,1087,947,1591,49500,75999,115929,49500,,IMU->,7,-78,2051,2052,
19958,1533,1083,909,1579,49500,75999,115929,49500,,IMU->,11,-79,2048,2049,
19989,1536,1061,887,1586,49500,75999,115929,49500,,IMU->,9,-80,2051,2052,
19958,1534,1054,830,1591,49500,75999,115929,49500,,IMU->,9,-77,2049,2050,
19958,1535,1038,806,1585,49500,75999,115929,49500,,IMU->,13,-82,2052,2053,
19989,1546,1019,767,1582,49500,75999,115929,49500,,IMU->,5,-81,2047,2048,
20324,1532,1015,741,1581,49500,75999,115929,49500,,IMU->,11,-80,2049,2050,
19958,1537,1005,724,1583,49500,75999,115929,49500,,IMU->,9,-78,2048,2049,
19958,1530,991,693,1581,49500,75999,115929,49500,,IMU->,8,-79,2052,2053,
19958,1547,994,704,1592,49500,75999,115929,49500,,IMU->,10,-79,2044,2045,
19958,1550,989,681,1588,49500,75999,115929,49500,,IMU->,11,-82,2052,2053,
19958,1526,972,652,1573,49500,75999,115929,49500,,IMU->,15,-78,2050,2051,
19989,1538,964,650,1587,49500,75999,115929,49500,,IMU->,11,-81,2047,2048,
19958,1537,970,625,1577,49500,75999,115929,49500,,IMU->,8,-78,2051,2052,
19958,1528,946,617,1578,49500,75999,115929,49500,,IMU->,9,-77,2052,2053,
20324,1545,953,595,1587,49500,75999,115929,49500,,IMU->,9,-82,2048,2049,
19958,1533,945,581,1581,49500,75999,115929,49500,,IMU->,8,-79,2050,2051,
19958,1535,924,558,1583,49500,75999,115929,49500,,IMU->,8,-80,2048,2049,
19958,1535,923,515,1583,49500,75999,115929,49500,,IMU->,9,-79,2051,2052,
19958,1534,905,498,1573,49500,75999,115929,49500,,IMU->,8,-80,2048,2049,
19958,1538,902,466,1593,49500,75999,115929,49500,,IMU->,7,-80,2050,2051,
19958,1539,903,449,1582,49500,75999,115929,49500,,IMU->,8,-79,2051,2052,
19958,1533,887,455,1584,49500,75999,115929,49500,,IMU->,11,-80,2051,2052,
19989,1531,938,596,1593,49500,75999,115929,49500,,IMU->,8,-81,2049,2050,
20324,1539,1020,888,1574,49500,75999,115929,49500,,IMU->,15,-78,2050,2051,
19989,1536,1142,1283,1591,49500,76065,116094,49500,,IMU->,5,-79,2047,2048,
19958,1539,1286,1867,1583,49500,76065,116094,49500,,IMU->,9,-84,2047,2048,
19958,1541,1381,2134,1584,49500,76065,116094,49500,,IMU->,7,-82,2048,2049,
19958,1539,1424,2183,1598,49500,76065,116094,49500,,IMU->,12,-78,2046,2047,
19989,1548,1388,2048,1594,49500,76065,116094,49500,,IMU->,10,-81,2049,2050,
19989,1539,1318,1794,1584,49500,76065,116094,49500,,IMU->,9,-81,2046,2047,
19958,1536,1245,1588,1582,49500,76065,116094,49500,,IMU->,9,-83,2050,2051,
19958,1539,1183,1427,1586,49500,76065,116094,49500,,IMU->,9,-82,2050,2051,
19958,1526,1138,1279,1573,49500,76065,116094,49500,,IMU->,8,-77,2048,2049,
19958,1534,1094,1177,1583,49500,76065,116094,49500,,IMU->,8,-82,2049,2050,
20324,1545,1067,1078,1587,49500,76065,116094,49500,,IMU->,9,-84,2047,2048,
19958,1527,1050,1040,1579,49500,76065,116094,49500,,IMU->,7,-81,2049,2050,
19958,1536,1043,1040,1583,49500,76065,116094,49500,,IMU->,11,-81,2047,2048,
19989,1537,1051,1051,1585,49500,76065,116094,49500,,IMU->,9,-80,2047,2048,
19958,1536,1072,1130,1579,49500,76065,116094,49500,,IMU->,9,-80,2047,2048,
19958,1536,1099,1185,1586,49500,76065,116094,49500,,IMU->,5,-82,2050,2051,
19958,1537,1110,1249,1575,49500,76065,116094,49500,,IMU->,11,-79,2046,2047,
19958,1534,1122,1259,1582,49500,76065,116094,49500,,IMU->,6,-78,2049,2050,
19958,1526,1138,1264,1586,49500,76065,116094,49500,,IMU->,10,-76,2048,2049,
19989,1540,1122,1252,1576,49500,76065,116094,49500,,IMU->,12,-82,2047,2048,
19989,1539,1102,1185,1594,49500,76065,116094,49500,,IMU->,10,-81,2049,2050,
20355,1542,1092,1122,1577,49500,76065,116094,49500,,IMU->,8,-82,2048,2049,
19958,1531,1054,1075,1577,49500,76065,116094,49500,,IMU->,10,-78,2049,2050,
19989,1535,1056,1028,1585,49500,76065,116094,49500,,IMU->,9,-77,2047,2048,
19958,1537,1026,982,1574,49500,76065,116094,49500,,IMU->,11,-82,2052,2053,
19958,1526,1003,914,1586,49500,76065,116094,49500,,IMU->,9,-81,2048,2049,
19958,1539,1003,878,1592,49500,76065,116094,49500,,IMU->,8,-81,2050,2051,
19958,1543,990,861,1581,49500,76065,116094,49500,,IMU->,4,-78,2051,2052,
19958,1522,980,841,1581,49500,76065,116094,49500,,IMU->,6,-76,2044,2045,
19958,1536,981,826,1585,49500,76065,116094,49500,,IMU->,8,-80,2050,2051,
19958,1537,974,794,1581,49500,76065,116094,49500,,IMU->,7,-83,2052,2053,
20324,1531,970,801,1575,49500,76065,116094,49500,,IMU->,13,-78,2052,2053,
19958,1533,964,786,1582,49500,76065,116094,49500,,IMU->,15,-83,2052,2053,
19989,1531,961,773,1582,49500,76065,116094,49500,,IMU->,11,-80,2051,2052,
19989,1538,955,781,1582,49500,76065,116094,49500,,IMU->,7,-82,2047,2048,
19958,1540,971,773,1583,49500,76065,116094,49500,,IMU->,8,-79,2047,2048,
19958,1528,970,770,1579,49500,76065,116094,49500,,IMU->,13,-80,2049,2050,
19958,1534,970,769,1576,49500,76065,116094,49500,,IMU->,7,-80,2052,2053,
19958,1526,960,729,1578,49500,76065,116094,49500,,IMU->,13,-79,2049,2050,
19989,1527,956,740,1580,49500,76065,116094,49500,,IMU->,10,-78,2049,2050,
19958,1535,953,709,1585,49500,76065,116094,49500,,IMU->,9,-82,2049,2050,
20324,1527,938,681,1574,49500,76065,116094,49500,,IMU->,10,-81,2047,2048,
19989,1534,934,680,1579,49500,76065,116094,49500,,IMU->,4,-79,2051,2052,
19958,1532,944,666,1579,49500,76065,116094,49500,,IMU->,9,-80,2044,2045,
19958,1525,917,652,1566,49500,76065,116094,49500,,IMU->,10,-83,2046,2047,
19989,1533,937,730,1590,49500,76065,116094,49500,,IMU->,13,-80,2048,2049,
19958,1536,1025,998,1586,49500,76065,116094,49500,,IMU->,10,-80,2049,2050,
19989,1531,1136,1378,1583,49500,76065,116094,49500,,IMU->,10,-79,2048,2049,
19958,1529,1290,1845,1586,49500,76065,116094,49500,,IMU->,13,-79,2052,2053,
19958,1536,1410,2243,1577,49500,76065,116094,49500,,IMU->,8,-78,2049,2050,
19958,1534,1468,2352,1586,49500,76065,116094,49500,,IMU->,9,-79,2053,2054,
19958,1529,1467,2280,1588,49500,76065,116094,49500,,IMU->,8,-79,2045,2046,
20324,1541,1400,2048,1586,49500,76065,116094,49500,,IMU->,5,-79,2053,2054,
19958,1540,1326,1798,1592,49500,76065,116094,49500,,IMU->,8,-79,2050,2051,
19958,1544,1258,1597,1585,49500,76065,116094,49500,,IMU->,6,-80,2043,2044,
19958,1538,1203,1443,1587,49500,76065,116094,49500,,IMU->,9,-79,2046,2047,
19958,1530,1162,1316,1575,49500,76065,116094,49500,,IMU->,10,-82,2048,2049,
19989,1535,1116,1211,1574,49500,76065,116094,49500,,IMU->,5,-79,2052,2053,
19958,1526,1097,1148,1582,49500,76065,116094,49500,,IMU->,13,-79,2048,2049,
19958,1528,1085,1138,1586,49500,76065,116094,49500,,IMU->,8,-79,2050,2051,
19958,1537,1086,1141,1586,49500,76065,116094,49500,,IMU->,12,-78,2048,2049,
19989,1535,1099,1187,1579,49500,76065,116094,49500,,IMU->,12,-79,2048,2049,
20294,1540,1124,1260,1580,49500,76065,116094,49500,,IMU->,8,-81,2055,2056,
19958,1526,1149,1299,1576,49500,76065,116094,49500,,IMU->,11,-82,2050,2051,
19989,1524,1152,1350,1575,49500,76065,116094,49500,,IMU->,10,-81,2051,2052,
19958,1536,1154,1343,1593,49500,76065,116094,49500,,IMU->,8,-83,2046,2047,
19958,1529,1145,1300,1580,49500,76065,116094,49500,,IMU->,12,-80,2049,2050,
19989,1533,1132,1282,1589,49500,76065,116094,49500,,IMU->,9,-82,2050,2051,
19958,1538,1132,1232,1584,49500,76065,116094,49500,,IMU->,11,-81,2049,2050,
19989,1531,1092,1178,1577,49500,76065,116094,49500,,IMU->,13,-78,2047,2048,
19989,1530,1073,1118,1583,49500,76065,116094,49500,,IMU->,9,-84,2051,2052,
19958,1528,1065,1054,1578,49500,76065,116094,49500,,IMU->,9,-81,2046,2047,
20324,1533,1046,1034,1578,49500,76065,116094,49500,,IMU->,7,-77,2054,2055,
19958,1534,1043,1002,1585,49500,76065,116094,49500,,IMU->,8,-80,2048,2049,
19958,1534,1026,966,1576,49500,76065,116094,49500,,IMU->,9,-80,2048,2049,
19958,1538,1011,929,1583,49500,76065,116094,49500,,IMU->,11,-80,2049,2050,
19989,1532,1014,920,1576,49500,76065,116094,49500,,IMU->,8,-81,2050,2051,
19958,1528,998,898,1574,49500,76065,116094,49500,,IMU->,9,-80,2043,2044,
19958,1528,1010,885,1582,49500,76065,116094,49500,,IMU->,10,-82,2047,2048,
19989,1532,997,881,1577,49500,76065,116094,49500,,IMU->,9,-80,2051,2052,
19958,1533,994,863,1589,49500,76065,116094,49500,,IMU->,13,-78,2048,2049,
19989,1532,1000,859,1583,49500,76065,116094,49500,,IMU->,10,-82,2049,2050,
19958,1528,988,848,1572,49500,76065,116094,49500,,IMU->,10,-79,2052,2053,
19989,1527,986,840,1579,49500,76065,116094,49500,,IMU->,9,-79,2050,2051,
20294,1535,982,853,1574,49500,76065,116094,49500,,IMU->,10,-78,2050,2051,
19989,1536,978,823,1583,49500,76065,116094,49500,,IMU->,6,-82,2046,2047,
19958,1530,981,814,1584,49500,76065,116094,49500,,IMU->,10,-83,2051,2052,
19989,1537,970,794,1585,49500,76065,116094,49500,,IMU->,10,-80,2047,2048,
19958,1530,972,783,1585,49500,76065,116094,49500,,IMU->,9,-76,2047,2048,
19958,1526,958,748,1570,49500,76065,116094,49500,,IMU->,7,-78,2050,2051,
19958,1525,940,731,1575,49500,76065,116094,49500,,IMU->,10,-81,2047,2048,
19958,1522,937,706,1578,49500,76065,116094,49500,,IMU->,10,-81,2050,2051,
19989,1531,930,691,1581,49500,76065,116094,49500,,IMU->,9,-80,2047,2048,
20324,1534,926,655,1584,49500,76065,116094,49500,,IMU->,7,-83,2045,2046,
19927,1537,924,681,1583,49500,76065,116094,49500,,IMU->,10,-80,2053,2054,
19958,1537,958,832,1583,49500,76065,116094,49500,,IMU->,11,-81,2043,2044,
19958,1525,1064,1159,1575,49500,76065,116094,49500,,IMU->,11,-80,2050,2051,
19989,1532,1205,1661,1578,49500,76065,116094,49500,,IMU->,6,-81,2051,2052,
19958,1531,1376,2166,1584,49500,76065,116094,49500,,IMU->,8,-79,2054,2055,
19958,1537,1517,2594,1581,49500,76065,116094,49500,,IMU->,11,-78,2051,2052,
19989,1545,1567,2676,1603,49500,76065,116094,49500,,IMU->,8,-78,2046,2047,
19958,1543,1546,2504,1591,49500,76065,116094,49500,,IMU->,13,-77,2048,2049,
19989,1537,1451,2238,1577,49500,76065,116094,49500,,IMU->,10,-80,2051,2052,
20324,1538,1380,1984,1584,49500,76065,116094,49500,,IMU->,10,-80,2051,2052,
19989,1536,1301,1779,1577,49500,76065,116094,49500,,IMU->,12,-81,2050,2051,
19989,1542,1249,1625,1589,49500,76065,116094,49500,,IMU->,8,-78,2051,2052,
19927,1532,1212,1521,1582,49500,76065,116094,49500,,IMU->,7,-84,2049,2050,
19958,1540,1178,1424,1584,49500,76065,116094,49500,,IMU->,12,-81,2053,2054,
19989,1536,1154,1358,1592,49500,76065,116094,49500,,IMU->,11,-79,2051,2052,
19958,1532,1141,1350,1575,49500,76065,116094,49500,,IMU->,8,-80,2054,2055,
19958,1526,1148,1355,1580,49500,76065,116094,49500,,IMU->,10,-78,2049,2050,
19989,1534,1172,1429,1587,49500,76065,116094,49500,,IMU->,9,-77,2053,2054,
19958,1532,1174,1478,1577,49500,76065,116094,49500,,IMU->,9,-81,2047,2048,
19958,1526,1206,1519,1591,49500,76065,116094,49500,,IMU->,10,-83,2046,2047,
19989,1542,1226,1582,1584,49500,76065,116094,49500,,IMU->,10,-82,2051,2052,
20324,1541,1219,1593,1581,49500,76065,116094,49500,,IMU->,7,-81,2048,2049,
19927,1530,1212,1567,1584,49500,76065,116094,49500,,IMU->,12,-79,2049,2050,
19989,1542,1206,1527,1580,49500,76065,116094,49500,,IMU->,7,-78,2049,2050,
19958,1531,1187,1459,1584,49500,76065,116094,49500,,IMU->,12,-78,2050,2051,
19958,1538,1168,1424,1585,49500,76065,116094,49500,,IMU->,9,-80,2049,2050,
19958,1541,1147,1361,1591,49500,76065,116094,49500,,IMU->,11,-81,2050,2051,
19989,1531,1116,1282,1582,49500,76065,116094,49500,,IMU->,10,-81,2044,2045,
19989,1536,1094,1246,1582,49500,76065,116094,49500,,IMU->,9,-81,2048,2049,
19958,1528,1100,1216,1584,49500,76065,116094,49500,,IMU->,10,-79,2051,2052,
19989,1519,1071,1177,1580,49500,76065,116094,49500,,IMU->,11,-80,2045,2046,
19989,1550,1064,1150,1592,49500,76065,116094,49500,,IMU->,12,-78,2047,2048,
19989,1534,1061,1113,1584,49500,76065,116094,49500,,IMU->,9,-78,2051,2052,
20324,1538,1050,1119,1586,49500,76065,116094,49500,,IMU->,8,-79,2052,2053,
19927,1537,1053,1081,1581,49500,76065,116094,49500,,IMU->,7,-82,2049,2050,
19958,1528,1024,1062,1572,49500,76065,116094,49500,,IMU->,8,-82,2049,2050,
19958,1534,1020,1043,1588,49500,76065,116094,49500,,IMU->,11,-80,2050,2051,
19989,1531,1025,1039,1578,49500,76065,116094,49500,,IMU->,7,-81,2052,2053,
19958,1531,1005,1032,1582,49500,76065,116094,49500,,IMU->,11,-83,2047,2048,
19989,1538,1004,1012,1586,49500,76065,116094,49500,,IMU->,11,-80,2048,2049,
19989,1534,1000,1000,1577,49500,76065,116094,49500,,IMU->,11,-79,2049,2050,
19989,1531,989,975,1581,49500,76065,116094,49500,,IMU->,6,-79,2054,2055,
19958,1531,990,965,1581,49500,76065,116094,49500,,IMU->,10,-80,2050,2051,
20324,1536,971,949,1571,49500,76065,116094,49500,,IMU->,12,-78,2050,2051,
19958,1528,970,921,1581,49500,76065,116094,49500,,IMU->,6,-79,2046,2047,
19927,1542,969,921,1580,49500,76065,116094,49500,,IMU->,7,-78,2049,2050,
19958,1535,958,888,1579,49500,76065,116094,49500,,IMU->,10,-80,2047,2048,
19958,1526,944,855,1583,49500,76065,116094,49500,,IMU->,12,-81,2050,2051,
19958,1542,932,839,1583,49500,76065,116094,49500,,IMU->,9,-77,2047,2048,
19958,1531,936,804,1582,49500,76065,116094,49500,,IMU->,12,-79,2051,2052,
19989,1531,919,789,1583,49500,76065,116094,49500,,IMU->,9,-80,2052,2053,
19958,1532,897,742,1585,49500,76065,116094,49500,,IMU->,8,-81,2046,2047,
20324,1526,899,722,1574,49500,76065,116094,49500,,IMU->,8,-80,2048,2049,
19958,1535,904,764,1573,49500,76065,116094,49500,,IMU->,10,-83,2051,2052,
19927,1532,944,909,1582,49500,76065,116094,49500,,IMU->,7,-82,2049,2050,
19958,1529,1045,1239,1580,49500,76065,116094,49500,,IMU->,10,-80,2049,2050,
19989,1548,1201,1742,1594,49500,76131,116094,49500,,IMU->,9,-81,2049,2050,
19958,1535,1517,2281,1582,49500,76131,116094,49500,,IMU->,12,-80,2048,2049,
19958,1536,1643,2633,1588,49500,76131,116094,49500,,IMU->,12,-75,2048,2049,
19989,1538,1675,2651,1591,49500,76131,116094,49500,,IMU->,11,-79,2050,2051,
19958,1530,1622,2491,1571,49500,76131,116094,49500,,IMU->,8,-81,2051,2052,
20324,1540,1539,2204,1594,49500,76131,116094,49500,,IMU->,9,-78,2047,2048,
19958,1550,1457,1942,1583,49500,76131,116094,49500,,IMU->,13,-80,2051,2052,
19989,1541,1368,1745,1586,49500,76131,116094,49500,,IMU->,9,-78,2047,2048,
19927,1540,1329,1603,1594,49500,76131,116094,49500,,IMU->,13,-76,2049,2050,
19958,1543,1277,1475,1575,49500,76131,116094,49500,,IMU->,10,-79,2048,2049,
19989,1536,1235,1377,1579,49500,76131,116094,49500,,IMU->,9,-82,2051,2052,
19958,1530,1224,1321,1585,49500,76131,116094,49500,,IMU->,11,-81,2051,2052,
19989,1533,1203,1291,1577,49500,76131,116094,49500,,IMU->,10,-79,2049,2050,
19958,1534,1211,1303,1590,49500,76131,116094,49500,,IMU->,12,-81,2051,2052,
19958,1534,1222,1336,1579,49500,76131,116094,49500,,IMU->,11,-77,2050,2051,
19989,1540,1236,1388,1587,49500,76131,116094,49500,,IMU->,7,-81,2054,2055,
20324,1535,1264,1446,1582,49500,76131,116094,49500,,IMU->,12,-82,2054,2055,
19958,1532,1260,1463,1571,49500,76131,116094,49500,,IMU->,11,-79,2047,2048,
19927,1529,1260,1445,1586,49500,76131,116094,49500,,IMU->,13,-80,2045,2046,
19989,1538,1254,1429,1586,49500,76131,116094,49500,,IMU->,10,-81,2051,2052,
19958,1542,1240,1381,1582,49500,76131,116094,49500,,IMU->,8,-79,2049,2050,
19958,1528,1216,1316,1584,49500,76131,116094,49500,,IMU->,12,-82,2046,2047,
19989,1536,1191,1273,1580,49500,76131,116094,49500,,IMU->,5,-79,2047,2048,
19958,1532,1181,1198,1578,49500,76131,116094,49500,,IMU->,9,-81,2054,2055,
19958,1520,1155,1160,1576,49500,76131,116094,49500,,IMU->,6,-81,2048,2049,
20324,1541,1147,1130,1586,49500,76131,116094,49500,,IMU->,11,-77,2049,2050,
19989,1535,1139,1083,1582,49500,76131,116094,49500,,IMU->,8,-80,2053,2054,
20019,1539,1122,1064,1580,49500,76131,116094,49500,,IMU->,6,-81,2050,2051,
19958,1538,1110,1040,1583,49500,76131,116094,49500,,IMU->,8,-82,2050,2051,
19958,1525,1102,1002,1567,49500,76131,116094,49500,,IMU->,10,-76,2048,2049,
19958,1531,1083,982,1585,49500,76131,116094,49500,,IMU->,10,-83,2052,2053,
19958,1534,1091,969,1577,49500,76131,116094,49500,,IMU->,11,-79,2046,2047,
19958,1531,1080,958,1578,49500,76131,116094,49500,,IMU->,11,-80,2043,2044,
19989,1531,1088,935,1587,49500,76131,116094,49500,,IMU->,13,-81,2052,2053,
19958,1539,1075,921,1575,49500,76131,116094,49500,,IMU->,13,-78,2049,2050,
19989,1535,1067,921,1583,49500,76131,116094,49500,,IMU->,9,-84,2050,2051,
19958,1532,1076,912,1577,49500,76131,116094,49500,,IMU->,9,-78,2050,2051,
20324,1529,1053,898,1568,49500,76131,116094,49500,,IMU->,11,-81,2049,2050,
19989,1535,1058,875,1583,49500,76131,116094,49500,,IMU->,11,-78,2046,2047,
19989,1543,1071,884,1575,49500,76131,116094,49500,,IMU->,10,-79,2050,2051,
20050,1538,1053,855,1589,49500,76131,116094,49500,,IMU->,11,-81,2044,2045,
19958,1539,1051,867,1587,49500,76131,116094,49500,,IMU->,8,-77,2048,2049,
19958,1539,1040,826,1573,49500,76131,116094,49500,,IMU->,9,-79,2052,2053,
19927,1520,1038,805,1581,49500,76131,116094,49500,,IMU->,9,-77,2053,2054,
19958,1529,1032,798,1580,49500,76131,116094,49500,,IMU->,10,-80,2049,2050,
19958,1536,1028,792,1581,49500,76131,116094,49500,,IMU->,9,-79,2051,2052,
19958,1521,1018,765,1584,49500,76131,116094,49500,,IMU->,9,-78,2049,2050,
19958,1535,1017,746,1585,49500,76131,116094,49500,,IMU->,8,-77,2048,2049,
20324,1532,1014,707,1580,49500,76131,116094,49500,,IMU->,9,-80,2052,2053,
19958,1530,1000,704,1574,49500,76131,116094,49500,,IMU->,10,-78,2050,2051,
19989,1536,987,680,1578,49500,76131,116094,49500,,IMU->,7,-79,2046,2047,
19958,1522,990,659,1581,49500,76131,116094,49500,,IMU->,6,-82,2048,2049,
19927,1533,996,713,1572,49500,76131,116094,49500,,IMU->,11,-80,2050,2051,
19989,1531,1066,926,1583,49500,76131,116094,49500,,IMU->,9,-81,2052,2053,
19958,1539,1175,1266,1584,49500,76131,116094,49500,,IMU->,10,-77,2045,2046,
19989,1533,1306,1721,1583,49500,76131,116094,49500,,IMU->,7,-81,2048,2049,
19958,1531,1450,2118,1583,49500,76131,116094,49500,,IMU->,9,-77,2050,2051,
19958,1532,1528,2333,1582,49500,76131,116094,49500,,IMU->,11,-81,2047,2048,
19989,1546,1541,2268,1592,49500,76131,116094,49500,,IMU->,10,-79,2050,2051,
19989,1538,1490,2093,1577,49500,76131,116094,49500,,IMU->,9,-80,2047,2048,
20324,1541,1422,1854,1587,49500,76131,116094,49500,,IMU->,10,-82,2053,2054,
20019,1539,1357,1653,1584,49500,76131,116094,49500,,IMU->,9,-81,2051,2052,
19958,1532,1287,1500,1574,49500,76131,116094,49500,,IMU->,12,-77,2052,2053,
19989,1531,1254,1358,1580,49500,76131,116094,49500,,IMU->,13,-78,2047,2048,
19958,1534,1220,1264,1578,49500,76131,116094,49500,,IMU->,9,-79,2049,2050,
19927,1532,1186,1179,1580,49500,76131,116094,49500,,IMU->,14,-83,2050,2051,
19989,1537,1176,1143,1584,49500,76131,116094,49500,,IMU->,12,-79,2049,2050,
19958,1538,1171,1152,1583,49500,76131,116094,49500,,IMU->,10,-79,2047,2048,
19958,1535,1192,1175,1583,49500,76131,116094,49500,,IMU->,8,-77,2050,2051,
19958,1526,1210,1265,1577,49500,76131,116094,49500,,IMU->,10,-78,2046,2047,
19989,1543,1239,1339,1581,49500,76131,116094,49500,,IMU->,10,-82,2047,2048,
19989,1529,1252,1380,1580,49500,76131,116094,49500,,IMU->,11,-79,2049,2050,
20355,1536,1267,1415,1574,49500,76131,116094,49500,,IMU->,9,-79,2051,2052,
19958,1535,1283,1404,1589,49500,76131,116094,49500,,IMU->,9,-78,2050,2051,
19989,1540,1266,1383,1585,49500,76131,116094,49500,,IMU->,10,-78,2049,2050,
19958,1538,1228,1299,1583,49500,76131,116094,49500,,IMU->,11,-81,2049,2050,
19989,1529,1210,1228,1577,49500,76131,116094,49500,,IMU->,13,-81,2050,2051,
19989,1535,1187,1177,1578,49500,76131,116094,49500,,IMU->,9,-80,2052,2053,
19927,1530,1166,1117,1578,49500,76131,116094,49500,,IMU->,10,-80,2047,2048,
19989,1525,1134,1050,1579,49500,76131,116094,49500,,IMU->,10,-83,2046,2047,
19958,1536,1127,1031,1590,49500,76131,116094,49500,,IMU->,9,-82,2047,2048,
19958,1530,1125,986,1580,49500,76131,116094,49500,,IMU->,6,-80,2056,2057,
19958,1527,1110,966,1577,49500,76131,116094,49500,,IMU->,9,-81,2052,2053,
20324,1528,1104,936,1580,49500,76131,116094,49500,,IMU->,11,-80,2048,2049,
19989,1523,1101,926,1569,49500,76131,116094,49500,,IMU->,9,-81,2053,2054,
19958,1533,1098,915,1579,49500,76131,116094,49500,,IMU->,8,-80,2048,2049,
19958,1532,1120,928,1584,49500,76131,116094,49500,,IMU->,13,-77,2046,2047,
19989,1531,1096,919,1574,49500,76131,116094,49500,,IMU->,14,-80,2052,2053,
19989,1533,1111,897,1579,49500,76131,116094,49500,,IMU->,12,-79,2050,2051,
19927,1532,1100,903,1573,49500,76131,116094,49500,,IMU->,8,-80,2045,2046,
19958,1534,1102,909,1580,49500,76131,116094,49500,,IMU->,10,-78,2051,2052,
19989,1531,1099,886,1577,49500,76131,116094,49500,,IMU->,12,-78,2050,2051,
19958,1527,1080,872,1571,49500,76131,116094,49500,,IMU->,8,-79,2048,2049,
19958,1533,1086,849,1587,49500,76131,116094,49500,,IMU->,8,-78,2050,2051,
20324,1525,1086,839,1570,49500,76131,116094,49500,,IMU->,5,-77,2049,2050,
19958,1533,1061,813,1580,49500,76131,116094,49500,,IMU->,10,-82,2048,2049,
19989,1532,1065,807,1581,49500,76131,116094,49500,,IMU->,9,-82,2045,2046,
19958,1534,1056,781,1569,49500,76131,116094,49500,,IMU->,11,-84,2050,2051,
19989,1528,1056,760,1586,49500,76131,116094,49500,,IMU->,8,-79,2048,2049,
19927,1536,1056,748,1571,49500,76131,116094,49500,,IMU->,13,-79,2049,2050,
19989,1537,1050,725,1577,49500,76131,116094,49500,,IMU->,11,-83,2049,2050,
19989,1518,1042,695,1574,49500,76131,116094,49500,,IMU->,8,-79,2048,2049,
19958,1523,1033,706,1571,49500,76131,116094,49500,,IMU->,10,-81,2050,2051,
19989,1520,1049,754,1581,49500,76131,116094,49500,,IMU->,6,-79,2048,2049,
19958,1521,1127,999,1572,49500,76131,116094,49500,,IMU->,9,-82,2046,2047,
20324,1535,1239,1394,1578,49500,76131,116094,49500,,IMU->,9,-78,2048,2049,
19958,1535,1427,1962,1582,49500,76131,116094,49500,,IMU->,10,-78,2049,2050,
19989,1537,1589,2498,1578,49500,76131,116094,49500,,IMU->,9,-81,2048,2049,
19958,1533,1681,2721,1588,49500,76131,116094,49500,,IMU->,8,-76,2048,2049,
19958,1537,1688,2668,1580,49500,76131,116094,49500,,IMU->,12,-78,2049,2050,
19927,1548,1639,2503,1582,49500,76131,116094,49500,,IMU->,8,-78,2051,2052,
19958,1531,1568,2225,1581,49500,76131,116094,49500,,IMU->,12,-80,2049,2050,
19989,1533,1462,1937,1583,49500,76131,116094,49500,,IMU->,13,-82,2049,2050,
19989,1536,1397,1717,1587,49500,76131,116094,49500,,IMU->,13,-79,2048,2049,
19989,1517,1331,1563,1568,49500,76131,116094,49500,,IMU->,10,-79,2051,2052,
20324,1534,1290,1438,1585,49500,76131,116094,49500,,IMU->,9,-83,2047,2048,
19958,1537,1254,1339,1581,49500,76131,116094,49500,,IMU->,11,-83,2049,2050,
19958,1526,1214,1266,1567,49500,76131,116094,49500,,IMU->,7,-82,2054,2055,
19927,1527,1220,1252,1586,49500,76131,116094,49500,,IMU->,10,-82,2052,2053,
19989,1528,1241,1308,1569,49500,76131,116094,49500,,IMU->,10,-83,2048,2049,
19927,1531,1236,1348,1575,49500,76131,116094,49500,,IMU->,12,-79,2043,2044,
19958,1526,1261,1394,1586,49500,76131,116094,49500,,IMU->,11,-81,2054,2055,
19989,1532,1272,1455,1574,49500,76131,116094,49500,,IMU->,11,-82,2047,2048,
19958,1526,1294,1486,1585,49500,76131,116094,49500,,IMU->,9,-80,2049,2050,
20324,1536,1302,1471,1580,49500,76131,116094,49500,,IMU->,14,-83,2046,2047,
19989,1533,1275,1438,1575,49500,76131,116094,49500,,IMU->,8,-81,2051,2052,
19958,1529,1269,1381,1582,49500,76131,116094,49500,,IMU->,12,-81,2049,2050,
19958,1527,1247,1345,1569,49500,76131,116094,49500,,IMU->,8,-80,2051,2052,
19958,1525,1219,1258,1576,49500,76131,116094,49500,,IMU->,9,-79,2048,2049,
19927,1532,1205,1202,1580,49500,76131,116094,49500,,IMU->,12,-81,2052,2053,
19989,1537,1177,1139,1576,49500,76131,116094,49500,,IMU->,7,-76,2051,2052,
19958,1524,1170,1104,1581,49500,76131,116094,49500,,IMU->,11,-79,2048,2049,
19989,1534,1154,1073,1577,49500,76131,116094,49500,,IMU->,13,-80,2046,2047,
19958,1518,1131,1009,1573,49500,76131,116094,49500,,IMU->,10,-79,2049,2050,
19989,1521,1112,957,1565,49500,76131,116094,49500,,IMU->,8,-80,2048,2049,
20324,1531,1101,949,1578,49500,76131,116094,49500,,IMU->,13,-82,2051,2052,
19958,1526,1109,917,1577,49500,76131,116094,49500,,IMU->,11,-81,2046,2047,
19989,1531,1083,918,1576,49500,76131,116094,49500,,IMU->,10,-78,2048,2049,
19989,1534,1098,894,1581,49500,76131,116094,49500,,IMU->,12,-76,2048,2049,
19927,1530,1094,890,1569,49500,76131,116094,49500,,IMU->,10,-82,2044,2045,
19989,1524,1089,890,1573,49500,76131,116094,49500,,IMU->,8,-80,2049,2050,
19927,1525,1088,882,1576,49500,76131,116094,49500,,IMU->,13,-79,2049,2050,
19958,1519,1073,867,1572,49500,76131,116094,49500,,IMU->,6,-81,2049,2050,
19958,1526,1086,856,1578,49500,76131,116094,49500,,IMU->,10,-80,2048,2049,
20355,1535,1075,851,1569,49500,76131,116094,49500,,IMU->,6,-80,2046,2047,
19958,1532,1068,847,1576,49500,76131,116094,49500,,IMU->,8,-81,2048,2049,
19958,1522,1070,824,1577,49500,76131,116094,49500,,IMU->,11,-81,2049,2050,
19989,1525,1059,805,1564,49500,76131,116094,49500,,IMU->,11,-75,2048,2049,
19958,1525,1063,797,1582,49500,76131,116094,49500,,IMU->,12,-80,2051,2052,
19989,1528,1062,788,1573,49500,76131,116094,49500,,IMU->,12,-80,2047,2048,
19989,1529,1043,750,1575,49500,76098,116028,49500,,IMU->,7,-79,2054,2055,
19958,1532,1045,565,1584,49500,76098,116028,49500,,IMU->,11,-80,2046,2047,
19958,1530,1036,571,1565,49500,76098,116028,49500,,IMU->,6,-77,2047,2048,
19958,1510,1024,540,1570,49500,76098,116028,49500,,IMU->,8,-79,2047,2048,
19958,1517,1036,547,1574,49500,76098,116028,49500,,IMU->,8,-79,2054,2055,
20324,1537,1051,639,1571,49500,76098,116028,49500,,IMU->,7,-80,2050,2051,
19989,1519,1149,926,1579,49500,76098,116028,49500,,IMU->,10,-79,2051,2052,
19958,1538,1284,1423,1582,49500,76098,116028,49500,,IMU->,12,-80,2049,2050,
19989,1532,1461,1973,1582,49500,76098,116028,49500,,IMU->,11,-81,2049,2050,
19958,1525,1623,2483,1573,49500,76098,116028,49500,,IMU->,10,-79,2050,2051,
20019,1537,1716,2748,1584,49500,76098,116028,49500,,IMU->,8,-80,2051,2052,
19958,1534,1731,2687,1590,49500,76098,116028,49500,,IMU->,9,-79,2051,2052,
19958,1539,1668,2464,1585,49500,76098,116028,49500,,IMU->,12,-77,2047,2048,
19989,1545,1578,2152,1592,49500,76098,116028,49500,,IMU->,10,-79,2052,2053,
19927,1532,1486,1874,1584,49500,76098,116028,49500,,IMU->,8,-78,2052,2053,
19958,1540,1412,1669,1583,49500,76098,116028,49500,,IMU->,7,-77,2047,2048,
20324,1533,1352,1493,1574,49500,76098,116028,49500,,IMU->,14,-76,2048,2049,
19989,1528,1293,1375,1572,49500,76098,116028,49500,,IMU->,10,-82,2050,2051,
19958,1538,1281,1313,1584,49500,76098,116028,49500,,IMU->,8,-79,2053,2054,
19958,1529,1274,1276,1572,49500,76098,116028,49500,,IMU->,10,-82,2049,2050,
19989,1537,1270,1287,1589,49500,76098,116028,49500,,IMU->,11,-80,2049,2050,
19989,1540,1280,1296,1593,49500,76098,116028,49500,,IMU->,9,-80,2048,2049,
19958,1527,1286,1362,1568,49500,76098,116028,49500,,IMU->,8,-78,2049,2050,
19958,1526,1316,1436,1579,49500,76098,116028,49500,,IMU->,9,-83,2051,2052,
19927,1527,1336,1509,1573,49500,76098,116028,49500,,IMU->,14,-81,2051,2052,
19989,1530,1335,1510,1579,49500,76098,116028,49500,,IMU->,11,-77,2049,2050,
19989,1526,1343,1502,1586,49500,76098,116028,49500,,IMU->,9,-82,2048,2049,
19958,1531,1331,1462,1585,49500,76098,116028,49500,,IMU->,8,-78,2049,2050,
20324,1536,1302,1383,1582,49500,76098,116028,49500,,IMU->,10,-79,2049,2050,
19989,1527,1273,1314,1577,49500,76098,116028,49500,,IMU->,10,-79,2049,2050,
19989,1539,1250,1256,1576,49500,76098,116028,49500,,IMU->,11,-78,2048,2049,
19958,1529,1243,1209,1584,49500,76098,116028,49500,,IMU->,7,-81,2049,2050,
19958,1533,1221,1161,1576,49500,76098,116028,49500,,IMU->,7,-78,2049,2050,
19927,1535,1200,1088,1581,49500,76098,116028,49500,,IMU->,12,-79,2049,2050,
19989,1527,1184,1041,1579,49500,76098,116028,49500,,IMU->,8,-78,2050,2051,
19927,1535,1168,1003,1578,49500,76098,116028,49500,,IMU->,11,-79,2050,2051,
19958,1521,1155,965,1571,49500,76098,116028,49500,,IMU->,9,-80,2048,2049,
20324,1527,1144,943,1573,49500,76098,116028,49500,,IMU->,12,-79,2047,2048,
19989,1525,1133,919,1583,49500,76098,116028,49500,,IMU->,11,-80,2048,2049,
19958,1527,1123,898,1572,49500,76098,116028,49500,,IMU->,9,-78,2049,2050,
19958,1531,1124,894,1585,49500,76098,116028,49500,,IMU->,10,-80,2051,2052,
19989,1537,1118,864,1580,49500,76098,116028,49500,,IMU->,12,-81,2047,2048,
19958,1518,1091,839,1567,49500,76098,116028,49500,,IMU->,10,-79,2049,2050,
19989,1535,1106,837,1583,49500,76098,116028,49500,,IMU->,10,-77,2051,2052,
19958,1531,1100,811,1570,49500,76098,116028,49500,,IMU->,8,-79,2052,2053,
19927,1526,1081,822,1575,49500,76098,116028,49500,,IMU->,12,-83,2052,2053,
19989,1527,1087,795,1589,49500,76098,116028,49500,,IMU->,11,-78,2050,2051,
19958,1528,1084,788,1574,49500,76098,116028,49500,,IMU->,7,-81,2047,2048,
20324,1526,1078,768,1575,49500,76098,116028,49500,,IMU->,8,-81,2048,2049,
19958,1527,1078,761,1572,49500,76098,116028,49500,,IMU->,8,-79,2046,2047,
19958,1528,1051,721,1573,49500,76098,116028,49500,,IMU->,7,-79,2052,2053,
19958,1525,1059,721,1583,49500,76098,116028,49500,,IMU->,8,-78,2049,2050,
19989,1534,1048,689,1568,49500,76098,116028,49500,,IMU->,10,-80,2049,2050,
19989,1531,1037,653,1584,49500,76098,116028,49500,,IMU->,10,-77,2048,2049,
19958,1533,1024,630,1576,49500,76098,116028,49500,,IMU->,10,-79,2050,2051,
19989,1527,1017,646,1576,49500,76098,116028,49500,,IMU->,11,-81,2052,2053,
19927,1525,1068,796,1579,49500,76098,116028,49500,,IMU->,11,-78,2049,2050,
20324,1529,1167,1140,1568,49500,76098,116028,49500,,IMU->,11,-81,2049,2050,
19958,1527,1302,1581,1578,49500,76098,116028,49500,,IMU->,12,-79,2050,2051,
19989,1531,1459,2076,1584,49500,76098,116028,49500,,IMU->,10,-80,2048,2049,
19958,1544,1576,2434,1588,49500,76098,116028,49500,,IMU->,8,-85,2047,2048,
19958,1522,1611,2448,1586,49500,76098,116028,49500,,IMU->,8,-80,2050,2051,
19958,1541,1556,2283,1582,49500,76098,116028,49500,,IMU->,12,-82,2050,2051,
19958,1541,1489,2031,1585,49500,76098,116028,49500,,IMU->,10,-82,2048,2049,
19989,1532,1415,1773,1572,49500,76098,116028,49500,,IMU->,12,-79,2049,2050,
19989,1532,1325,1576,1579,49500,76098,116028,49500,,IMU->,8,-82,2051,2052,
19927,1528,1275,1390,1588,49500,76098,116028,49500,,IMU->,11,-83,2046,2047,
19989,1537,1219,1273,1572,49500,76098,116028,49500,,IMU->,10,-81,2048,2049,
19989,1525,1206,1188,1582,49500,76098,116028,49500,,IMU->,13,-80,2050,2051,
19989,1531,1181,1144,1575,49500,76098,116028,49500,,IMU->,6,-80,2050,2051,
20355,1536,1173,1128,1576,49500,76098,116028,49500,,IMU->,9,-79,2050,2051,
19958,1530,1194,1154,1581,49500,76098,116028,49500,,IMU->,11,-84,2050,2051,
19989,1530,1203,1213,1572,49500,76098,116028,49500,,IMU->,9,-82,2047,2048,
19958,1529,1217,1280,1576,49500,76098,116028,49500,,IMU->,9,-75,2052,2053,
19958,1521,1233,1303,1571,49500,76098,116028,49500,,IMU->,14,-79,2047,2048,
19989,1531,1221,1331,1578,49500,76098,116028,49500,,IMU->,11,-81,2048,2049,
19958,1533,1236,1317,1584,49500,76098,116028,49500,,IMU->,11,-77,2049,2050,
19989,1531,1220,1286,1570,49500,76098,116028,49500,,IMU->,8,-81,2049,2050,
19958,1526,1198,1248,1585,49500,76098,116028,49500,,IMU->,7,-79,2048,2049,
19927,1529,1182,1181,1578,49500,76098,116028,49500,,IMU->,13,-83,2052,2053,
19989,1534,1160,1115,1572,49500,76098,116028,49500,,IMU->,14,-82,2048,2049,
20324,1520,1138,1063,1574,49500,76098,116028,49500,,IMU->,7,-78,2049,2050,
19958,1530,1128,1036,1567,49500,76098,116028,49500,,IMU->,7,-80,2047,2048,
19958,1529,1109,971,1578,49500,76098,116028,49500,,IMU->,10,-80,2044,2045,
19989,1529,1104,943,1572,49500,76098,116028,49500,,IMU->,11,-81,2046,2047,
19958,1537,1098,923,1574,49500,76098,116028,49500,,IMU->,11,-80,2051,2052,
19958,1527,1102,893,1575,49500,76098,116028,49500,,IMU->,10,-80,2047,2048,
19989,1525,1077,886,1562,49500,76098,116028,49500,,IMU->,10,-81,2049,2050,
19958,1526,1077,853,1574,49500,76098,116028,49500,,IMU->,8,-79,2049,2050,
19927,1521,1088,839,1578,49500,76098,116028,49500,,IMU->,8,-78,2053,2054,
20324,1532,1075,851,1571,49500,76098,116028,49500,,IMU->,14,-83,2049,2050,
19989,1516,1080,827,1578,49500,76098,116028,49500,,IMU->,11,-79,2049,2050,
19958,1530,1074,843,1572,49500,76098,116028,49500,,IMU->,11,-82,2048,2049,
19989,1529,1086,828,1577,49500,76098,116028,49500,,IMU->,7,-77,2048,2049,
19958,1521,1086,833,1571,49500,76098,116028,49500,,IMU->,8,-81,2054,2055,
19958,1530,1083,833,1578,49500,76098,116028,49500,,IMU->,10,-77,2052,2053,
19989,1531,1087,818,1575,49500,76098,116028,49500,,IMU->,12,-80,2048,2049,
19958,1525,1079,790,1577,49500,76098,116028,49500,,IMU->,11,-79,2046,2047,
19989,1533,1077,804,1576,49500,76098,116028,49500,,IMU->,12,-80,2047,2048,
19989,1521,1073,777,1565,49500,76098,116028,49500,,IMU->,11,-79,2045,2046,
19989,1520,1059,775,1570,49500,76098,116028,49500,,IMU->,11,-83,2050,2051,
19989,1518,1074,795,1574,49500,76098,116028,49500,,IMU->,8,-81,2053,2054,
19927,1519,1116,965,1573,49500,76098,116028,49500,,IMU->,9,-78,2051,2052,
20324,1535,1214,1290,1584,49500,76098,116028,49500,,IMU->,10,-78,2048,2049,
19989,1534,1376,1842,1575,49500,76098,116028,49500,,IMU->,9,-78,2047,2048,
19958,1532,1569,2522,1584,49500,76098,116028,49500,,IMU->,12,-75,2051,2052,
19989,1529,1754,2980,1584,49500,76098,116028,49500,,IMU->,8,-76,2047,2048,
19958,1527,1808,2976,1578,49500,76098,116028,49500,,IMU->,12,-80,2047,2048,
19958,1532,1791,2979,1588,49500,76098,116028,49500,,IMU->,12,-80,2048,2049,
19989,1541,1750,2843,1585,49500,76098,116028,49500,,IMU->,9,-79,2052,2053,
19958,1540,1681,2632,1588,49500,76098,116028,49500,,IMU->,7,-76,2047,2048,
19958,1536,1584,2280,1593,49500,76098,116028,49500,,IMU->,10,-79,2051,2052,
19989,1535,1460,1972,1571,49500,76098,116028,49500,,IMU->,11,-81,2054,2055,
20294,1518,1399,1784,1581,49500,76098,116028,49500,,IMU->,11,-78,2046,2047,
19958,1532,1376,1719,1576,49500,76098,116028,49500,,IMU->,8,-75,2047,2048,
19958,1533,1361,1681,1576,49500,76098,116028,49500,,IMU->,12,-80,2049,2050,
19989,1528,1369,1668,1587,49500,76098,116028,49500,,IMU->,12,-80,2046,2047,
19958,1544,1387,1751,1582,49500,76098,116028,49500,,IMU->,12,-81,2047,2048,
19989,1539,1431,1919,1586,49500,76098,116028,49500,,IMU->,5,-80,2046,2047,
19958,1528,1471,2059,1573,49500,76098,116028,49500,,IMU->,10,-78,2052,2053,
19989,1534,1497,2173,1579,49500,76098,116028,49500,,IMU->,11,-82,2046,2047,
19989,1532,1523,2241,1581,49500,76098,116028,49500,,IMU->,8,-82,2049,2050,
19958,1527,1535,2323,1575,49500,76098,116028,49500,,IMU->,8,-79,2048,2049,
19958,1533,1550,2339,1590,49500,76098,116028,49500,,IMU->,7,-82,2047,2048,
20294,1526,1552,2364,1581,49500,76098,116028,49500,,IMU->,13,-77,2047,2048,
19989,1548,1554,2425,1585,49500,76098,116028,49500,,IMU->,6,-78,2049,2050,
19958,1534,1547,2454,1581,49500,76098,116028,49500,,IMU->,10,-77,2046,2047,
19989,1526,1507,2368,1573,49500,76098,116028,49500,,IMU->,11,-81,2046,2047,
19958,1541,1481,2299,1587,49500,76098,116028,49500,,IMU->,8,-81,2051,2052,
19958,1531,1455,2208,1570,49500,76098,116028,49500,,IMU->,10,-81,2051,2052,
19989,1531,1393,2078,1585,49500,76098,116028,49500,,IMU->,11,-80,2049,2050,
19958,1540,1356,1935,1591,49500,76098,116028,49500,,IMU->,9,-82,2048,2049,
19927,1529,1307,1831,1570,49500,76098,116028,49500,,IMU->,11,-79,2052,2053,
19989,1523,1269,1755,1578,49500,76098,116028,49500,,IMU->,11,-80,2052,2053,
20294,1519,1249,1667,1579,49500,76098,116028,49500,,IMU->,13,-78,2050,2051,
19989,1532,1206,1587,1578,49500,76098,116028,49500,,IMU->,9,-78,2049,2050,
19958,1536,1198,1539,1591,49500,76098,116028,49500,,IMU->,7,-81,2041,2042,
19958,1538,1176,1490,1583,49500,76098,116028,49500,,IMU->,12,-82,2049,2050,
19958,1530,1140,1413,1581,49500,76098,116028,49500,,IMU->,9,-79,2045,2046,
19958,1524,1142,1389,1574,49500,76098,116028,49500,,IMU->,8,-83,2047,2048,
19958,1529,1124,1354,1567,49500,76098,116028,49500,,IMU->,11,-80,2047,2048,
19958,1523,1109,1266,1579,49500,76098,116028,49500,,IMU->,11,-78,2047,2048,
19989,1528,1081,1219,1574,49500,76098,116028,49500,,IMU->,10,-79,2048,2049,
19989,1526,1080,1161,1583,49500,76098,116028,49500,,IMU->,12,-80,2052,2053,
20294,1538,1066,1116,1581,49500,76098,116028,49500,,IMU->,11,-75,2048,2049,
19958,1532,1046,1093,1571,49500,76098,116028,49500,,IMU->,10,-83,2051,2052,
19989,1521,1022,1033,1573,49500,76098,116028,49500,,IMU->,6,-80,2047,2048,
19958,1525,975,977,1573,49500,76098,116028,49500,,IMU->,7,-82,2049,2050,
19958,1528,949,902,1573,49500,76098,116028,49500,,IMU->,5,-76,2045,2046,
19958,1520,934,856,1570,49500,76098,116028,49500,,IMU->,10,-80,2050,2051,
19958,1539,949,930,1586,49500,75999,115797,49500,,IMU->,9,-79,2048,2049,
19958,1531,882,922,1584,49500,75999,115797,49500,,IMU->,12,-83,2047,2048,
19989,1521,951,1089,1569,49500,75999,115797,49500,,IMU->,11,-83,2053,2054,
19989,1520,1016,1213,1579,49500,75999,115797,49500,,IMU->,11,-78,2048,2049,
19989,1532,1035,1177,1573,49500,75999,115797,49500,,IMU->,8,-79,2048,2049,
20294,1525,1012,1105,1573,49500,75999,115797,49500,,IMU->,13,-81,2047,2048,
19989,1534,1013,1005,1586,49500,75999,115797,49500,,IMU->,10,-82,2051,2052,
19989,1531,977,888,1571,49500,75999,115797,49500,,IMU->,9,-80,2049,2050,
19958,1529,932,764,1584,49500,75999,115797,49500,,IMU->,13,-80,2046,2047,
19958,1529,909,657,1576,49500,75999,115797,49500,,IMU->,10,-80,2050,2051,
19989,1527,866,562,1566,49500,75999,115797,49500,,IMU->,13,-79,2054,2055,
19958,1526,839,477,1582,49500,75999,115797,49500,,IMU->,12,-77,2047,2048,
19989,1527,813,411,1571,49500,75999,115797,49500,,IMU->,12,-82,2052,2053,
19989,1523,796,366,1573,49500,75999,115797,49500,,IMU->,9,-79,2049,2050,
19958,1524,806,379,1578,49500,75999,115797,49500,,IMU->,8,-80,2049,2050,
19958,1532,797,373,1572,49500,75999,115797,49500,,IMU->,14,-77,2046,2047,
19989,1528,803,404,1582,49500,75999,115797,49500,,IMU->,9,-79,2053,2054,
20294,1533,830,485,1573,49500,75999,115797,49500,,IMU->,8,-81,2052,2053,
19958,1526,852,521,1573,49500,75999,115797,49500,,IMU->,12,-80,2047,2048,
19989,1532,865,535,1582,49500,75999,115797,49500,,IMU->,13,-80,2048,2049,
19958,1537,867,527,1576,49500,75999,115797,49500,,IMU->,10,-78,2052,2053,
19989,1519,851,471,1577,49500,75999,115797,49500,,IMU->,9,-75,2048,2049,
19958,1528,853,472,1570,49500,75999,115797,49500,,IMU->,11,-77,2049,2050,
19958,1535,836,433,1574,49500,75999,115797,49500,,IMU->,12,-79,2045,2046,
19989,1521,816,368,1568,49500,75999,115797,49500,,IMU->,10,-81,2054,2055,
19958,1528,793,325,1576,49500,75999,115797,49500,,IMU->,9,-79,2046,2047,
19958,1530,794,288,1576,49500,75999,115797,49500,,IMU->,10,-79,2050,2051,
19989,1523,770,258,1572,49500,75999,115797,49500,,IMU->,12,-80,2047,2048,
20294,1529,753,216,1582,49500,75999,115797,49500,,IMU->,9,-81,2050,2051,
19958,1520,740,168,1569,49500,75999,115797,49500,,IMU->,9,-83,2053,2054,
19958,1524,725,153,1571,49500,75999,115797,49500,,IMU->,11,-83,2049,2050,
19989,1528,731,135,1582,49500,75999,115797,49500,,IMU->,14,-79,2051,2052,
19958,1529,725,122,1572,49500,75999,115797,49500,,IMU->,14,-81,2048,2049,
19989,1532,720,90,1575,49500,75999,115797,49500,,IMU->,9,-79,2046,2047,
19958,1521,724,91,1567,49500,75999,115797,49500,,IMU->,10,-82,2047,2048,
19958,1522,705,76,1573,49500,75999,115797,49500,,IMU->,10,-79,2048,2049,
19989,1530,710,66,1580,49500,75999,115797,49500,,IMU->,9,-79,2045,2046,
19958,1520,700,51,1566,49500,75999,115797,49500,,IMU->,7,-83,2052,2053,
20294,1521,696,62,1573,49500,75999,115797,49500,,IMU->,11,-79,2048,2049,
19958,1520,719,57,1578,49500,75999,115797,49500,,IMU->,8,-79,2049,2050,
19958,1530,696,56,1570,49500,75999,115797,49500,,IMU->,14,-83,2047,2048,
19989,1525,690,21,1575,49500,75999,115797,49500,,IMU->,7,-79,2050,2051,
19958,1531,685,16,1571,49500,75999,115797,49500,,IMU->,7,-79,2048,2049,
19958,1536,664,3,1577,49500,75999,115797,49500,,IMU->,7,-76,2048,2049,
19958,1524,653,0,1578,49500,75999,115797,49500,,IMU->,8,-80,2051,2052,
19989,1528,658,0,1572,49500,75999,115797,49500,,IMU->,9,-83,2049,2050,
19958,1519,649,0,1577,49500,75999,115797,49500,,IMU->,10,-78,2051,2052,
19989,1517,654,1,1569,49500,75999,115797,49500,,IMU->,8,-83,2047,2048,
20324,1532,721,136,1576,49500,75999,115797,49500,,IMU->,10,-80,2049,2050,
19989,1527,834,474,1575,49500,75999,115797,49500,,IMU->,11,-81,2050,2051,
19989,1540,935,818,1577,49500,75999,115797,49500,,IMU->,9,-82,2050,2051,
19958,1539,1046,1095,1583,49500,75999,115797,49500,,IMU->,12,-81,2048,2049,
19958,1534,1109,1298,1579,49500,75999,115797,49500,,IMU->,12,-81,2050,2051,
19958,1541,1132,1336,1580,49500,75999,115797,49500,,IMU->,10,-82,2047,2048,
19989,1521,1097,1172,1570,49500,75999,115797,49500,,IMU->,9,-78,2044,2045,
19958,1527,1022,982,1576,49500,75999,115797,49500,,IMU->,11,-81,2049,2050,
19989,1530,980,819,1587,49500,75999,115797,49500,,IMU->,8,-80,2051,2052,
19958,1525,919,675,1575,49500,75999,115797,49500,,IMU->,9,-81,2050,2051,
19958,1528,869,555,1584,49500,75999,115797,49500,,IMU->,8,-78,2053,2054,
20324,1543,846,447,1575,49500,75999,115797,49500,,IMU->,11,-80,2047,2048,
19989,1524,802,373,1568,49500,75999,115797,49500,,IMU->,10,-78,2050,2051,
19958,1523,801,353,1578,49500,75999,115797,49500,,IMU->,8,-78,2052,2053,
19958,1524,792,337,1567,49500,75999,115797,49500,,IMU->,8,-79,2050,2051,
19958,1529,790,335,1581,49500,75999,115797,49500,,IMU->,9,-82,2052,2053,
19958,1537,816,380,1579,49500,75999,115797,49500,,IMU->,12,-81,2047,2048,
19989,1534,834,463,1575,49500,75999,115797,49500,,IMU->,10,-80,2049,2050,
19989,1528,850,478,1582,49500,75999,115797,49500,,IMU->,10,-78,2049,2050,
19989,1522,856,515,1570,49500,75999,115797,49500,,IMU->,9,-78,2049,2050,
19958,1519,864,520,1577,49500,75999,115797,49500,,IMU->,7,-79,2049,2050,
19958,1520,881,511,1574,49500,75999,115797,49500,,IMU->,12,-81,2052,2053,
19989,1536,857,478,1574,49500,75999,115797,49500,,IMU->,11,-81,2052,2053,
20324,1532,848,421,1589,49500,75999,115797,49500,,IMU->,7,-77,2046,2047,
19958,1532,838,394,1569,49500,75999,115797,49500,,IMU->,10,-79,2050,2051,
19989,1526,818,366,1572,49500,75999,115797,49500,,IMU->,10,-80,2050,2051,
19989,1525,808,327,1576,49500,75999,115797,49500,,IMU->,11,-79,2048,2049,
19989,1532,778,294,1576,49500,75999,115797,49500,,IMU->,7,-80,2050,2051,
19958,1528,775,234,1580,49500,75999,115797,49500,,IMU->,5,-77,2050,2051,
19958,1531,769,227,1573,49500,75999,115797,49500,,IMU->,11,-79,2048,2049,
19989,1537,757,207,1573,49500,75999,115797,49500,,IMU->,10,-79,2051,2052,
19989,1516,749,177,1571,49500,75999,115797,49500,,IMU->,11,-79,2052,2053,
19989,1520,740,172,1568,49500,75999,115797,49500,,IMU->,8,-80,2048,2049,
19958,1525,748,173,1577,49500,75999,115797,49500,,IMU->,9,-80,2048,2049,
19958,1522,742,151,1569,49500,75999,115797,49500,,IMU->,9,-77,2049,2050,
19958,1519,737,150,1578,49500,75999,115797,49500,,IMU->,13,-76,2054,2055,
20324,1534,749,144,1574,49500,75999,115797,49500,,IMU->,12,-79,2048,2049,
19958,1530,742,167,1573,49500,75999,115797,49500,,IMU->,8,-81,2053,2054,
19958,1522,734,135,1577,49500,75999,115797,49500,,IMU->,11,-81,2052,2053,
19989,1522,728,129,1566,49500,75999,115797,49500,,IMU->,8,-78,2051,2052,
19958,1528,721,112,1570,49500,75999,115797,49500,,IMU->,12,-79,2050,2051,
19989,1524,730,93,1579,49500,75999,115797,49500,,IMU->,12,-79,2050,2051,
19958,1529,713,81,1575,49500,75999,115797,49500,,IMU->,8,-83,2047,2048,
19958,1538,718,58,1583,49500,75999,115797,49500,,IMU->,10,-79,2045,2046,
19989,1527,702,38,1565,49500,75999,115797,49500,,IMU->,4,-78,2048,2049,
19958,1510,680,37,1568,49500,75999,115797,49500,,IMU->,10,-76,2052,2053,
20294,1522,727,129,1571,49500,75999,115797,49500,,IMU->,11,-80,2048,2049,
19958,1528,805,408,1565,49500,75999,115797,49500,,IMU->,10,-79,2047,2048,
19989,1522,909,727,1580,49500,75999,115797,49500,,IMU->,10,-80,2047,2048,
19958,1532,1014,1019,1588,49500,75999,115797,49500,,IMU->,10,-79,2051,2052,
19989,1537,1073,1201,1580,49500,75999,115797,49500,,IMU->,12,-78,2045,2046,
19989,1530,1118,1289,1583,49500,75999,115797,49500,,IMU->,10,-77,2048,2049,
19989,1529,1106,1242,1570,49500,75999,115797,49500,,IMU->,11,-77,2048,2049,
19958,1521,1050,1050,1581,49500,75999,115797,49500,,IMU->,9,-78,2048,2049,
19958,1526,1000,897,1573,49500,75999,115797,49500,,IMU->,12,-74,2051,2052,
19989,1527,954,759,1576,49500,75999,115797,49500,,IMU->,7,-81,2048,2049,
19958,1528,915,620,1579,49500,75999,115797,49500,,IMU->,10,-79,2052,2053,
19989,1534,865,505,1578,49500,75999,115797,49500,,IMU->,11,-78,2047,2048,
20324,1526,827,416,1574,49500,75999,115797,49500,,IMU->,11,-81,2050,2051,
19958,1527,822,412,1571,49500,75999,115797,49500,,IMU->,10,-81,2048,2049,
19958,1531,828,410,1575,49500,75999,115797,49500,,IMU->,12,-78,2052,2053,
19989,1520,830,414,1573,49500,75999,115797,49500,,IMU->,11,-81,2049,2050,
19958,1531,850,488,1579,49500,75999,115797,49500,,IMU->,11,-81,2049,2050,
19989,1529,884,556,1584,49500,75999,115797,49500,,IMU->,9,-78,2050,2051,
19958,1514,911,636,1567,49500,75999,115797,49500,,IMU->,10,-79,2049,2050,
19958,1532,925,669,1577,49500,75999,115797,49500,,IMU->,9,-83,2049,2050,
19958,1525,937,674,1576,49500,75999,115797,49500,,IMU->,7,-77,2053,2054,
19958,1519,932,694,1575,49500,75999,115797,49500,,IMU->,7,-81,2049,2050,
20324,1535,945,684,1583,49500,75999,115797,49500,,IMU->,7,-81,2046,2047,
19958,1529,942,683,1571,49500,75999,115797,49500,,IMU->,8,-77,2050,2051,
19958,1532,908,624,1572,49500,75999,115797,49500,,IMU->,12,-79,2048,2049,
19989,1525,877,519,1574,49500,75999,115797,49500,,IMU->,13,-79,2048,2049,
19958,1522,842,478,1566,49500,75999,115797,49500,,IMU->,8,-79,2049,2050,
19958,1525,843,449,1576,49500,75999,115797,49500,,IMU->,7,-81,2051,2052,
19958,1528,834,416,1574,49500,75999,115797,49500,,IMU->,10,-81,2049,2050,
19958,1527,808,384,1579,49500,75999,115797,49500,,IMU->,10,-79,2049,2050,
19989,1524,808,351,1584,49500,75999,115797,49500,,IMU->,12,-81,2048,2049,
19958,1525,790,321,1570,49500,75999,115797,49500,,IMU->,11,-79,2051,2052,
20324,1524,782,301,1571,49500,75999,115797,49500,,IMU->,8,-77,2051,2052,
19958,1523,775,291,1567,49500,75999,115797,49500,,IMU->,9,-77,2051,2052,
19958,1532,763,275,1572,49500,75999,115797,49500,,IMU->,10,-82,2046,2047,
19958,1527,783,294,1578,49500,75999,115797,49500,,IMU->,8,-78,2047,2048,
19958,1538,788,310,1573,49500,75999,115797,49500,,IMU->,8,-79,2050,2051,
19958,1525,776,284,1577,49500,75999,115797,49500,,IMU->,11,-77,2047,2048,
19989,1524,775,291,1575,49500,75999,115797,49500,,IMU->,9,-76,2052,2053,
19958,1532,768,294,1574,49500,75999,115797,49500,,IMU->,7,-81,2047,2048,
19958,1514,771,266,1565,49500,75999,115797,49500,,IMU->,8,-80,2048,2049,
20324,1531,756,242,1577,49500,75999,115797,49500,,IMU->,12,-81,2046,2047,
19958,1535,747,213,1578,49500,75999,115797,49500,,IMU->,12,-79,2050,2051,
19958,1514,738,189,1568,49500,75999,115797,49500,,IMU->,10,-80,2051,2052,
19989,1526,728,170,1582,49500,75999,115797,49500,,IMU->,9,-82,2048,2049,
19958,1530,730,138,1573,49500,75999,115797,49500,,IMU->,12,-76,2048,2049,
19989,1526,718,165,1571,49500,75999,115797,49500,,IMU->,11,-79,2049,2050,
19958,1529,763,300,1584,49500,75999,115797,49500,,IMU->,9,-80,2051,2052,
19958,1527,865,627,1571,49500,75999,115797,49500,,IMU->,6,-78,2051,2052,
19958,1531,1012,1094,1581,49500,75999,115797,49500,,IMU->,15,-81,2049,2050,
19989,1524,1170,1599,1581,49500,75999,115797,49500,,IMU->,9,-81,2052,2053,
19958,1526,1304,2054,1573,49500,75999,115797,49500,,IMU->,12,-79,2048,2049,
19989,1542,1394,2246,1593,49500,75999,115797,49500,,IMU->,8,-81,2048,2049,
20324,1538,1391,2199,1574,49500,75999,115797,49500,,IMU->,12,-78,2051,2052,
19958,1536,1318,1985,1588,49500,75999,115797,49500,,IMU->,10,-79,2049,2050,
19989,1544,1258,1720,1588,49500,75999,115797,49500,,IMU->,10,-80,2051,2052,
19989,1538,1169,1492,1573,49500,76296,116457,49500,,IMU->,9,-81,2049,2050,
19958,1528,1391,2035,1587,49500,76296,116457,49500,,IMU->,9,-79,2049,2050,
19958,1534,1326,1854,1582,49500,76296,116457,49500,,IMU->,11,-81,2050,2051,
19958,1539,1256,1714,1573,49500,76296,116457,49500,,IMU->,10,-82,2045,2046,
19989,1523,1241,1655,1584,49500,76296,116457,49500,,IMU->,9,-77,2050,2051,
19958,1540,1247,1661,1586,49500,76296,116457,49500,,IMU->,11,-78,2046,2047,
19989,1534,1250,1680,1584,49500,76296,116457,49500,,IMU->,11,-81,2047,2048,
19989,1524,1253,1722,1578,49500,76296,116457,49500,,IMU->,11,-81,2048,2049,
19989,1521,1280,1790,1580,49500,76296,116457,49500,,IMU->,11,-79,2050,2051,
20324,1528,1322,1875,1579,49500,76296,116457,49500,,IMU->,10,-80,2047,2048,
19989,1542,1332,1960,1575,49500,76296,116457,49500,,IMU->,11,-79,2046,2047,
19989,1540,1344,1974,1584,49500,76296,116457,49500,,IMU->,11,-76,2050,2051,
19958,1534,1344,1983,1584,49500,76296,116457,49500,,IMU->,9,-79,2048,2049,
19958,1538,1334,1978,1589,49500,76296,116457,49500,,IMU->,10,-82,2051,2052,
19989,1531,1320,1897,1581,49500,76296,116457,49500,,IMU->,10,-76,2049,2050,
19958,1530,1283,1844,1581,49500,76296,116457,49500,,IMU->,11,-78,2047,2048,
19989,1537,1263,1773,1588,49500,76296,116457,49500,,IMU->,11,-78,2051,2052,
19958,1529,1239,1716,1572,49500,76296,116457,49500,,IMU->,10,-79,2047,2048,
19958,1534,1205,1671,1589,49500,76296,116457,49500,,IMU->,11,-81,2045,2046,
19989,1535,1193,1610,1582,49500,76296,116457,49500,,IMU->,10,-81,2049,2050,
19958,1523,1156,1570,1572,49500,76296,116457,49500,,IMU->,9,-78,2048,2049,
20324,1536,1157,1551,1584,49500,76296,116457,49500,,IMU->,5,-82,2049,2050,
19958,1538,1148,1535,1573,49500,76296,116457,49500,,IMU->,10,-79,2050,2051,
19989,1536,1111,1485,1576,49500,76296,116457,49500,,IMU->,10,-79,2051,2052,
19958,1537,1117,1464,1587,49500,76296,116457,49500,,IMU->,8,-78,2049,2050,
19958,1533,1112,1475,1577,49500,76296,116457,49500,,IMU->,11,-81,2049,2050,
19989,1525,1107,1453,1585,49500,76296,116457,49500,,IMU->,11,-79,2051,2052,
19989,1528,1096,1446,1577,49500,76296,116457,49500,,IMU->,16,-81,2052,2053,
19958,1529,1089,1423,1570,49500,76296,116457,49500,,IMU->,7,-79,2051,2052,
19958,1528,1118,1456,1586,49500,76296,116457,49500,,IMU->,9,-84,2050,2051,
19958,1533,1131,1487,1585,49500,76296,116457,49500,,IMU->,12,-81,2049,2050,
19989,1530,1118,1469,1588,49500,76296,116457,49500,,IMU->,10,-82,2051,2052,
19989,1525,1126,1482,1583,49500,76296,116457,49500,,IMU->,12,-79,2048,2049,
19989,1537,1130,1526,1577,49500,76296,116457,49500,,IMU->,7,-76,2052,2053,
20324,1522,1150,1563,1576,49500,76296,116457,49500,,IMU->,11,-78,2052,2053,
19958,1537,1133,1580,1572,49500,76296,116457,49500,,IMU->,10,-83,2049,2050,
19989,1535,1119,1550,1585,49500,76296,116457,49500,,IMU->,14,-82,2052,2053,
19958,1530,1127,1536,1583,49500,76296,116457,49500,,IMU->,11,-78,2045,2046,
19989,1546,1130,1556,1583,49500,76296,116457,49500,,IMU->,9,-76,2048,2049,
19958,1528,1115,1510,1577,49500,76296,116457,49500,,IMU->,10,-77,2050,2051,
19989,1526,1098,1485,1575,49500,76296,116457,49500,,IMU->,11,-81,2046,2047,
19958,1529,1094,1467,1583,49500,76296,116457,49500,,IMU->,10,-79,2047,2048,
19958,1520,1094,1495,1573,49500,76296,116457,49500,,IMU->,9,-77,2047,2048,
19958,1531,1099,1540,1585,49500,76296,116457,49500,,IMU->,12,-79,2047,2048,
19989,1534,1172,1759,1587,49500,76296,116457,49500,,IMU->,9,-78,2054,2055,
19958,1539,1296,2216,1582,49500,76296,116457,49500,,IMU->,9,-82,2048,2049,
20324,1532,1506,2944,1593,49500,76296,116457,49500,,IMU->,11,-80,2049,2050,
19989,1542,1745,2979,1585,49500,76296,116457,49500,,IMU->,10,-76,2048,2049,
19958,1544,1887,2976,1593,49500,76296,116457,49500,,IMU->,9,-80,2049,2050,
19958,1542,1941,2981,1602,49500,76296,116457,49500,,IMU->,7,-83,2052,2053,
19958,1550,1925,2980,1589,49500,76296,116457,49500,,IMU->,11,-78,2048,2049,
19989,1553,1871,2978,1602,49500,76296,116457,49500,,IMU->,10,-80,2049,2050,
19989,1545,1757,2982,1589,49500,76296,116457,49500,,IMU->,11,-83,2049,2050,
19958,1541,1621,2977,1585,49500,76296,116457,49500,,IMU->,10,-78,2048,2049,
19989,1535,1536,2908,1590,49500,76296,116457,49500,,IMU->,11,-78,2051,2052,
19958,1541,1452,2685,1586,49500,76296,116457,49500,,IMU->,8,-76,2050,2051,
19958,1534,1381,2504,1597,49500,76296,116457,49500,,IMU->,9,-78,2047,2048,
20324,1545,1353,2404,1594,49500,76296,116457,49500,,IMU->,10,-77,2049,2050,
19989,1546,1338,2375,1586,49500,76296,116457,49500,,IMU->,8,-78,2050,2051,
19958,1534,1354,2406,1588,49500,76296,116457,49500,,IMU->,13,-79,2048,2049,
19989,1542,1369,2496,1585,49500,76296,116457,49500,,IMU->,9,-80,2047,2048,
19958,1542,1385,2534,1593,49500,76296,116457,49500,,IMU->,12,-82,2051,2052,
19958,1533,1400,2578,1587,49500,76296,116457,49500,,IMU->,12,-80,2051,2052,
19989,1548,1417,2639,1597,49500,76296,116457,49500,,IMU->,10,-80,2049,2050,
19958,1551,1434,2630,1595,49500,76296,116457,49500,,IMU->,8,-80,2048,2049,
19958,1538,1407,2586,1585,49500,76296,116457,49500,,IMU->,11,-78,2051,2052,
19989,1539,1377,2498,1588,49500,76296,116457,49500,,IMU->,10,-81,2049,2050,
19958,1525,1345,2422,1579,49500,76296,116457,49500,,IMU->,10,-82,2050,2051,
19989,1546,1311,2333,1588,49500,76296,116457,49500,,IMU->,13,-79,2048,2049,
20324,1536,1289,2236,1585,49500,76296,116457,49500,,IMU->,9,-79,2049,2050,
19958,1543,1253,2187,1593,49500,76296,116457,49500,,IMU->,6,-80,2049,2050,
19958,1551,1251,2130,1595,49500,76296,116457,49500,,IMU->,7,-83,2052,2053,
19958,1539,1223,2080,1582,49500,76296,116457,49500,,IMU->,12,-77,2048,2049,
19958,1535,1200,2022,1582,49500,76296,116457,49500,,IMU->,11,-82,2045,2046,
19989,1534,1187,1988,1581,49500,76296,116457,49500,,IMU->,12,-83,2048,2049,
19989,1531,1180,1970,1574,49500,76296,116457,49500,,IMU->,7,-77,2051,2052,
19958,1539,1170,1950,1593,49500,76296,116457,49500,,IMU->,11,-79,2048,2049,
19989,1536,1160,1912,1587,49500,76296,116457,49500,,IMU->,10,-78,2049,2050,
19958,1536,1136,1867,1587,49500,76296,116457,49500,,IMU->,10,-79,2049,2050,
19989,1542,1135,1847,1586,49500,76296,116457,49500,,IMU->,11,-78,2050,2051,
20324,1538,1128,1841,1579,49500,76296,116457,49500,,IMU->,11,-78,2048,2049,
19958,1535,1114,1804,1585,49500,76296,116457,49500,,IMU->,10,-82,2047,2048,
19989,1535,1099,1782,1588,49500,76296,116457,49500,,IMU->,13,-81,2051,2052,
19989,1543,1103,1767,1587,49500,76296,116457,49500,,IMU->,7,-77,2050,2051,
19958,1535,1105,1747,1589,49500,76296,116457,49500,,IMU->,8,-80,2050,2051,
19958,1537,1080,1728,1585,49500,76296,116457,49500,,IMU->,12,-77,2046,2047,
19958,1538,1066,1667,1586,49500,76296,116457,49500,,IMU->,12,-84,2052,2053,
19989,1536,1068,1656,1581,49500,76296,116457,49500,,IMU->,7,-81,2048,2049,
19958,1533,1063,1654,1581,49500,76296,116457,49500,,IMU->,8,-78,2053,2054,
19958,1531,1070,1629,1587,49500,76296,116457,49500,,IMU->,14,-78,2048,2049,
19989,1533,1034,1588,1584,49500,76296,116457,49500,,IMU->,8,-79,2044,2045,
19958,1538,1025,1546,1592,49500,76296,116457,49500,,IMU->,8,-78,2049,2050,
20324,1534,1024,1524,1578,49500,76296,116457,49500,,IMU->,6,-78,2052,2053,
19958,1539,1003,1511,1581,49500,76296,116457,49500,,IMU->,12,-77,2050,2051,
19989,1533,993,1459,1581,49500,76296,116457,49500,,IMU->,11,-81,2051,2052,
19958,1537,979,1427,1577,49500,76296,116457,49500,,IMU->,11,-80,2051,2052,
19989,1540,993,1410,1591,49500,76296,116457,49500,,IMU->,13,-78,2051,2052,
19958,1530,987,1413,1574,49500,76296,116457,49500,,IMU->,11,-78,2048,2049,
19958,1533,984,1422,1581,49500,76296,116457,49500,,IMU->,11,-85,2047,2048,
19989,1530,1042,1572,1580,49500,76296,116457,49500,,IMU->,10,-78,2047,2048,
19958,1528,1160,1972,1569,49500,76296,116457,49500,,IMU->,9,-81,2051,2052,
19958,1534,1317,2455,1589,49500,76296,116457,49500,,IMU->,11,-78,2049,2050,
19989,1551,1462,2906,1588,49500,76296,116457,49500,,IMU->,9,-78,2050,2051,
20324,1546,1567,2980,1591,49500,76296,116457,49500,,IMU->,10,-79,2048,2049,
19958,1538,1635,2973,1595,49500,76296,116457,49500,,IMU->,12,-79,2053,2054,
19989,1543,1609,2981,1587,49500,76296,116457,49500,,IMU->,12,-79,2045,2046,
19958,1544,1530,2967,1596,49500,76296,116457,49500,,IMU->,12,-78,2052,2053,
19989,1540,1435,2694,1581,49500,76296,116457,49500,,IMU->,10,-82,2048,2049,
19989,1536,1359,2458,1590,49500,76296,116457,49500,,IMU->,7,-77,2048,2049,
19958,1542,1309,2301,1595,49500,76296,116457,49500,,IMU->,9,-81,2049,2050,
19958,1546,1249,2154,1584,49500,76296,116457,49500,,IMU->,12,-80,2046,2047,
19958,1533,1202,2032,1595,49500,76296,116457,49500,,IMU->,9,-83,2052,2053,
19958,1535,1191,1987,1577,49500,76296,116457,49500,,IMU->,11,-80,2050,2051,
19989,1544,1186,1985,1575,49500,76296,116457,49500,,IMU->,7,-81,2052,2053,
20324,1529,1200,1995,1584,49500,76296,116457,49500,,IMU->,9,-79,2049,2050,
19958,1539,1207,2059,1579,49500,76296,116457,49500,,IMU->,10,-82,2047,2048,
19989,1537,1235,2129,1586,49500,76296,116457,49500,,IMU->,6,-80,2048,2049,
19958,1535,1280,2251,1586,49500,76296,116457,49500,,IMU->,7,-82,2050,2051,
19958,1538,1309,2319,1585,49500,76296,116457,49500,,IMU->,8,-78,2048,2049,
19958,1535,1311,2299,1587,49500,76296,116457,49500,,IMU->,7,-79,2051,2052,
19958,1538,1313,2322,1585,49500,76296,116457,49500,,IMU->,9,-79,2049,2050,
19958,1539,1325,2324,1586,49500,76296,116457,49500,,IMU->,11,-82,2047,2048,
19989,1529,1336,2347,1589,49500,76296,116457,49500,,IMU->,10,-81,2048,2049,
19958,1536,1324,2311,1582,49500,76296,116457,49500,,IMU->,12,-81,2048,2049,
19989,1533,1300,2246,1581,49500,76296,116457,49500,,IMU->,9,-81,2050,2051,
20324,1531,1273,2220,1580,49500,76296,116457,49500,,IMU->,9,-78,2053,2054,
19958,1547,1277,2181,1580,49500,76296,116457,49500,,IMU->,10,-74,2047,2048,
19958,1532,1240,2113,1577,49500,76296,116457,49500,,IMU->,12,-78,2049,2050,
19989,1534,1216,2082,1588,49500,76296,116457,49500,,IMU->,8,-79,2046,2047,
19958,1540,1225,2055,1582,49500,76296,116457,49500,,IMU->,7,-78,2046,2047,
19958,1527,1208,2034,1573,49500,76296,116457,49500,,IMU->,7,-77,2049,2050,
19958,1535,1190,2002,1588,49500,76296,116457,49500,,IMU->,11,-78,2046,2047,
19958,1529,1181,1956,1580,49500,76296,116457,49500,,IMU->,11,-76,2050,2051,
19958,1529,1157,1944,1575,49500,76296,116457,49500,,IMU->,11,-79,2050,2051,
19989,1538,1165,1924,1590,49500,76296,116457,49500,,IMU->,10,-78,2051,2052,
20324,1543,1152,1888,1578,49500,76296,116457,49500,,IMU->,9,-81,2050,2051,
19958,1536,1138,1888,1582,49500,76296,116457,49500,,IMU->,9,-78,2049,2050,
19958,1532,1159,1902,1582,49500,76296,116457,49500,,IMU->,7,-80,2048,2049,
19958,1535,1162,1909,1578,49500,76296,116457,49500,,IMU->,10,-81,2048,2049,
19958,1525,1161,1898,1578,49500,76296,116457,49500,,IMU->,8,-79,2051,2052,
19958,1539,1175,1946,1578,49500,76296,116457,49500,,IMU->,8,-80,2051,2052,
19958,1532,1179,1962,1585,49500,76296,116457,49500,,IMU->,8,-80,2051,2052,
19958,1529,1181,1974,1582,49500,76296,116457,49500,,IMU->,9,-77,2046,2047,
20324,1533,1163,1940,1578,49500,76296,116457,49500,,IMU->,9,-80,2047,2048,
19958,1523,1153,1917,1580,49500,76296,116457,49500,,IMU->,9,-82,2051,2052,
19958,1534,1156,1930,1583,49500,76296,116457,49500,,IMU->,13,-83,2050,2051,
19989,1537,1141,1885,1581,49500,76296,116457,49500,,IMU->,10,-79,2047,2048,
19989,1529,1127,1875,1576,49500,76296,116457,49500,,IMU->,13,-79,2049,2050,
19989,1539,1133,1881,1584,49500,76296,116457,49500,,IMU->,11,-80,2043,2044,
19989,1526,1143,1899,1573,49500,76296,116457,49500,,IMU->,9,-80,2048,2049,
19958,1526,1180,2083,1571,49500,76197,115599,49500,,IMU->,10,-80,2052,2053,
19958,1540,1149,1547,1587,49500,76197,115599,49500,,IMU->,10,-78,2050,2051,
19989,1535,1316,2137,1578,49500,76197,115599,49500,,IMU->,10,-75,2049,2050,
19958,1537,1532,2828,1593,49500,76197,115599,49500,,IMU->,13,-75,2050,2051,
19989,1545,1696,2979,1595,49500,76197,115599,49500,,IMU->,12,-78,2049,2050,
19989,1537,1745,2980,1586,49500,76197,115599,49500,,IMU->,9,-79,2050,2051,
19958,1532,1745,2976,1602,49500,76197,115599,49500,,IMU->,10,-79,2050,2051,
20355,1546,1695,2976,1586,49500,76197,115599,49500,,IMU->,11,-77,2050,2051,
19989,1539,1602,2923,1587,49500,76197,115599,49500,,IMU->,8,-80,2051,2052,
19958,1551,1534,2646,1597,49500,76197,115599,49500,,IMU->,11,-79,2050,2051,
19989,1550,1458,2414,1590,49500,76197,115599,49500,,IMU->,7,-80,2049,2050,
19958,1551,1385,2210,1598,49500,76197,115599,49500,,IMU->,11,-80,2051,2052,
19989,1536,1321,2041,1586,49500,76197,115599,49500,,IMU->,10,-81,2044,2045,
19958,1535,1266,1927,1576,49500,76197,115599,49500,,IMU->,9,-78,2051,2052,
19958,1532,1252,1889,1585,49500,76197,115599,49500,,IMU->,10,-80,2049,2050,
19989,1534,1256,1905,1584,49500,76197,115599,49500,,IMU->,7,-80,2047,2048,
19958,1539,1264,1949,1593,49500,76197,115599,49500,,IMU->,12,-79,2051,2052,
19989,1539,1298,2042,1596,49500,76197,115599,49500,,IMU->,10,-81,2047,2048,
19958,1541,1333,2147,1586,49500,76197,115599,49500,,IMU->,11,-79,2049,2050,
19989,1529,1368,2230,1582,49500,76197,115599,49500,,IMU->,12,-78,2048,2049,
20324,1539,1383,2273,1582,49500,76197,115599,49500,,IMU->,8,-79,2050,2051,
19958,1549,1378,2253,1583,49500,76197,115599,49500,,IMU->,11,-78,2054,2055,
19958,1527,1349,2191,1586,49500,76197,115599,49500,,IMU->,10,-80,2051,2052,
19989,1549,1338,2127,1589,49500,76197,115599,49500,,IMU->,9,-79,2048,2049,
19958,1547,1315,2040,1594,49500,76197,115599,49500,,IMU->,10,-80,2047,2048,
19989,1535,1268,1949,1587,49500,76197,115599,49500,,IMU->,10,-78,2049,2050,
19958,1541,1239,1852,1592,49500,76197,115599,49500,,IMU->,10,-80,2050,2051,
19958,1531,1218,1792,1575,49500,76197,115599,49500,,IMU->,13,-78,2051,2052,
19989,1534,1192,1746,1584,49500,76197,115599,49500,,IMU->,12,-78,2049,2050,
19958,1534,1182,1690,1595,49500,76197,115599,49500,,IMU->,12,-82,2050,2051,
19989,1527,1148,1638,1582,49500,76197,115599,49500,,IMU->,10,-80,2051,2052,
20324,1546,1139,1598,1589,49500,76197,115599,49500,,IMU->,11,-79,2050,2051,
19958,1536,1139,1578,1578,49500,76197,115599,49500,,IMU->,7,-80,2050,2051,
19958,1529,1115,1567,1578,49500,76197,115599,49500,,IMU->,11,-81,2051,2052,
19989,1544,1126,1536,1586,49500,76197,115599,49500,,IMU->,11,-79,2048,2049,
19958,1532,1120,1530,1573,49500,76197,115599,49500,,IMU->,6,-79,2052,2053,
19958,1540,1122,1523,1595,49500,76197,115599,49500,,IMU->,11,-80,2050,2051,
19989,1548,1119,1508,1587,49500,76197,115599,49500,,IMU->,13,-74,2045,2046,
19958,1533,1094,1494,1573,49500,76197,115599,49500,,IMU->,10,-80,2049,2050,
19989,1526,1099,1468,1582,49500,76197,115599,49500,,IMU->,10,-81,2047,2048,
19958,1533,1097,1467,1573,49500,76197,115599,49500,,IMU->,8,-82,2047,2048,
19958,1530,1080,1440,1582,49500,76197,115599,49500,,IMU->,12,-79,2047,2048,
19989,1536,1083,1418,1587,49500,76197,115599,49500,,IMU->,11,-80,2049,2050,
20324,1545,1066,1398,1587,49500,76197,115599,49500,,IMU->,11,-79,2050,2051,
19958,1537,1059,1363,1583,49500,76197,115599,49500,,IMU->,9,-79,2049,2050,
19958,1534,1032,1319,1581,49500,76197,115599,49500,,IMU->,8,-78,2049,2050,
19958,1535,1005,1259,1582,49500,76197,115599,49500,,IMU->,13,-81,2046,2047,
19958,1525,998,1223,1580,49500,76197,115599,49500,,IMU->,11,-79,2048,2049,
19989,1533,990,1214,1583,49500,76197,115599,49500,,IMU->,6,-81,2048,2049,
19958,1536,1000,1195,1589,49500,76197,115599,49500,,IMU->,8,-80,2052,2053,
19958,1538,1005,1216,1588,49500,76197,115599,49500,,IMU->,8,-81,2049,2050,
19958,1538,1053,1387,1589,49500,76197,115599,49500,,IMU->,7,-81,2049,2050,
20324,1530,1180,1787,1575,49500,76197,115599,49500,,IMU->,12,-81,2051,2052,
19989,1540,1326,2318,1584,49500,76197,115599,49500,,IMU->,10,-82,2049,2050,
19989,1535,1522,2961,1588,49500,76197,115599,49500,,IMU->,14,-80,2049,2050,
19989,1537,1697,2979,1582,49500,76197,115599,49500,,IMU->,9,-77,2046,2047,
19958,1555,1787,2977,1605,49500,76197,115599,49500,,IMU->,8,-80,2049,2050,
19958,1555,1792,2981,1603,49500,76197,115599,49500,,IMU->,11,-79,2049,2050,
19958,1552,1721,2978,1590,49500,76197,115599,49500,,IMU->,13,-77,2050,2051,
19989,1546,1659,2980,1595,49500,76197,115599,49500,,IMU->,10,-75,2051,2052,
19989,1544,1590,2969,1585,49500,76197,115599,49500,,IMU->,10,-78,2048,2049,
19989,1544,1488,2690,1598,49500,76197,115599,49500,,IMU->,9,-80,2049,2050,
19958,1546,1404,2424,1593,49500,76197,115599,49500,,IMU->,11,-79,2047,2048,
19958,1541,1323,2246,1583,49500,76197,115599,49500,,IMU->,12,-82,2048,2049,
19989,1534,1304,2161,1591,49500,76197,115599,49500,,IMU->,10,-82,2051,2052,
20324,1548,1296,2126,1585,49500,76197,115599,49500,,IMU->,10,-81,2051,2052,
19958,1539,1267,2107,1592,49500,76197,115599,49500,,IMU->,11,-81,2051,2052,
19989,1541,1283,2138,1588,49500,76197,115599,49500,,IMU->,9,-82,2050,2051,
19958,1546,1316,2244,1590,49500,76197,115599,49500,,IMU->,9,-81,2051,2052,
19958,1538,1358,2328,1596,49500,76197,115599,49500,,IMU->,12,-85,2048,2049,
19989,1544,1378,2404,1585,49500,76197,115599,49500,,IMU->,10,-76,2049,2050,
19958,1541,1385,2421,1591,49500,76197,115599,49500,,IMU->,9,-78,2049,2050,
19958,1534,1398,2443,1587,49500,76197,115599,49500,,IMU->,11,-79,2051,2052,
19989,1542,1382,2394,1581,49500,76197,115599,49500,,IMU->,9,-79,2049,2050,
19958,1535,1358,2309,1586,49500,76197,115599,49500,,IMU->,12,-77,2049,2050,
19989,1537,1339,2253,1590,49500,76197,115599,49500,,IMU->,12,-82,2050,2051,
19958,1540,1322,2177,1594,49500,76197,115599,49500,,IMU->,9,-76,2051,2052,
20324,1532,1293,2089,1590,49500,76197,115599,49500,,IMU->,10,-81,2049,2050,
19989,1543,1243,2011,1584,49500,76197,115599,49500,,IMU->,11,-79,2051,2052,
19989,1542,1224,1931,1582,49500,76197,115599,49500,,IMU->,6,-81,2046,2047,
19958,1536,1201,1898,1575,49500,76197,115599,49500,,IMU->,10,-79,2051,2052,
19989,1543,1194,1849,1590,49500,76197,115599,49500,,IMU->,6,-80,2051,2052,
19958,1538,1170,1793,1583,49500,76197,115599,49500,,IMU->,10,-80,2047,2048,
19989,1540,1142,1741,1586,49500,76197,115599,49500,,IMU->,11,-80,2049,2050,
19958,1535,1128,1691,1585,49500,76197,115599,49500,,IMU->,9,-80,2047,2048,
19958,1533,1121,1685,1577,49500,76197,115599,49500,,IMU->,8,-80,2051,2052,
19958,1540,1098,1648,1585,49500,76197,115599,49500,,IMU->,9,-79,2048,2049,
19958,1525,1089,1605,1581,49500,76197,115599,49500,,IMU->,13,-80,2050,2051,
20324,1539,1078,1604,1583,49500,76197,115599,49500,,IMU->,11,-81,2045,2046,
19989,1538,1087,1577,1585,49500,76197,115599,49500,,IMU->,9,-77,2048,2049,
19958,1533,1066,1552,1577,49500,76197,115599,49500,,IMU->,11,-81,2047,2048,
19958,1541,1068,1543,1590,49500,76197,115599,49500,,IMU->,9,-83,2048,2049,
19958,1541,1063,1511,1584,49500,76197,115599,49500,,IMU->,10,-80,2050,2051,
19989,1534,1035,1485,1569,49500,76197,115599,49500,,IMU->,9,-79,2048,2049,
19958,1533,1028,1441,1580,49500,76197,115599,49500,,IMU->,13,-81,2046,2047,
19989,1534,1031,1412,1581,49500,76197,115599,49500,,IMU->,9,-79,2051,2052,
19958,1530,1019,1390,1580,49500,76197,115599,49500,,IMU->,12,-80,2050,2051,
19989,1527,1008,1365,1575,49500,76197,115599,49500,,IMU->,12,-79,2045,2046,
19989,1529,975,1312,1576,49500,76197,115599,49500,,IMU->,14,-85,2048,2049,
19989,1526,975,1257,1585,49500,76197,115599,49500,,IMU->,11,-77,2049,2050,
19958,1522,970,1239,1576,49500,76197,115599,49500,,IMU->,9,-79,2050,2051,
20324,1541,961,1233,1584,49500,76197,115599,49500,,IMU->,13,-82,2050,2051,
19958,1529,963,1221,1581,49500,76197,115599,49500,,IMU->,9,-82,2050,2051,
19958,1522,976,1294,1575,49500,76197,115599,49500,,IMU->,8,-77,2048,2049,
19958,1527,1065,1558,1585,49500,76197,115599,49500,,IMU->,9,-80,2049,2050,
19958,1536,1197,1974,1575,49500,76197,115599,49500,,IMU->,11,-79,2047,2048,
19989,1536,1330,2450,1587,49500,76197,115599,49500,,IMU->,10,-82,2050,2051,
19958,1535,1488,2940,1589,49500,76197,115599,49500,,IMU->,8,-82,2048,2049,
19958,1547,1624,2977,1593,49500,76197,115599,49500,,IMU->,9,-78,2051,2052,
19958,1541,1667,2979,1591,49500,76197,115599,49500,,IMU->,7,-77,2047,2048,
20324,1534,1608,2980,1582,49500,76197,115599,49500,,IMU->,8,-77,2049,2050,
19958,1549,1534,2901,1598,49500,76197,115599,49500,,IMU->,10,-79,2050,2051,
19958,1541,1474,2678,1587,49500,76197,115599,49500,,IMU->,9,-81,2052,2053,
19958,1543,1398,2484,1584,49500,76197,115599,49500,,IMU->,10,-79,2053,2054,
19989,1544,1329,2254,1593,49500,76197,115599,49500,,IMU->,11,-80,2051,2052,
19989,1540,1261,2074,1573,49500,76197,115599,49500,,IMU->,10,-81,2047,2048,
19958,1538,1226,1980,1592,49500,76197,115599,49500,,IMU->,12,-82,2052,2053,
19958,1536,1213,1937,1584,49500,76197,115599,49500,,IMU->,9,-78,2047,2048,
19958,1534,1183,1913,1577,49500,76197,115599,49500,,IMU->,11,-80,2048,2049,
19989,1533,1187,1902,1590,49500,76197,115599,49500,,IMU->,12,-77,2050,2051,
19989,1527,1200,1956,1578,49500,76197,115599,49500,,IMU->,10,-81,2050,2051,
20324,1541,1225,2025,1585,49500,76197,115599,49500,,IMU->,11,-75,2053,2054,
19989,1536,1249,2070,1582,49500,76197,115599,49500,,IMU->,12,-79,2046,2047,
19989,1533,1236,2079,1576,49500,76197,115599,49500,,IMU->,10,-80,2050,2051,
19958,1531,1259,2090,1588,49500,76197,115599,49500,,IMU->,7,-82,2052,2053,
19958,1540,1252,2077,1580,49500,76197,115599,49500,,IMU->,8,-80,2048,2049,
19958,1540,1236,2013,1585,49500,76197,115599,49500,,IMU->,8,-80,2052,2053,
19958,1529,1221,1931,1583,49500,76197,115599,49500,,IMU->,11,-81,2049,2050,
19958,1537,1186,1874,1573,49500,76197,115599,49500,,IMU->,10,-79,2046,2047,
19989,1525,1169,1813,1580,49500,76197,115599,49500,,IMU->,11,-80,2051,2052,
19958,1529,1157,1764,1583,49500,76197,115599,49500,,IMU->,7,-81,2048,2049,
19958,1534,1132,1704,1582,49500,76197,115599,49500,,IMU->,11,-78,2050,2051,
19989,1530,1124,1670,1587,49500,76197,115599,49500,,IMU->,11,-78,2050,2051,
20355,1548,1110,1634,1586,49500,76197,115599,49500,,IMU->,9,-79,2053,2054,
19958,1540,1099,1610,1579,49500,76197,115599,49500,,IMU->,10,-79,2048,2049,
19989,1533,1074,1581,1576,49500,76197,115599,49500,,IMU->,11,-80,2051,2052,
19958,1525,1068,1542,1576,49500,76197,115599,49500,,IMU->,11,-79,2050,2051,
19989,1527,1066,1526,1577,49500,76197,115599,49500,,IMU->,11,-79,2049,2050,
19958,1531,1059,1525,1578,49500,76197,115599,49500,,IMU->,10,-80,2048,2049,
19989,1535,1056,1478,1587,49500,76197,115599,49500,,IMU->,11,-81,2049,2050,
19989,1536,1052,1474,1571,49500,76197,115599,49500,,IMU->,14,-79,2052,2053,
19989,1538,1049,1470,1586,49500,76197,115599,49500,,IMU->,8,-81,2050,2051,
19958,1535,1052,1467,1578,49500,76197,115599,49500,,IMU->,7,-81,2047,2048,
19958,1519,1014,1419,1568,49500,76197,115599,49500,,IMU->,11,-78,2049,2050,
19989,1518,1022,1383,1580,49500,76197,115599,49500,,IMU->,8,-81,2047,2048,
19958,1523,1023,1393,1573,49500,76197,115599,49500,,IMU->,11,-80,2050,2051,
19989,1537,1021,1371,1589,49500,76197,115599,49500,,IMU->,10,-79,2052,2053,
20324,1540,1002,1322,1583,49500,76197,115599,49500,,IMU->,10,-80,2049,2050,
19989,1529,980,1295,1569,49500,76197,115599,49500,,IMU->,11,-79,2047,2048,
19989,1524,986,1266,1584,49500,76197,115599,49500,,IMU->,11,-79,2051,2052,
19958,1532,987,1276,1575,49500,76098,114807,49500,,IMU->,10,-77,2050,2051,
19958,1529,981,400,1572,49500,76098,114807,49500,,IMU->,10,-80,2047,2048,
19989,1529,1046,592,1585,49500,76098,114807,49500,,IMU->,9,-83,2053,2054,
19958,1542,1147,948,1580,49500,76098,114807,49500,,IMU->,12,-78,2049,2050,
19989,1531,1270,1357,1583,49500,76098,114807,49500,,IMU->,12,-79,2046,2047,
19989,1539,1389,1739,1587,49500,76098,114807,49500,,IMU->,10,-81,2047,2048,
19989,1537,1497,2012,1585,49500,76098,114807,49500,,IMU->,6,-74,2050,2051,
19958,1524,1539,2080,1590,49500,76098,114807,49500,,IMU->,12,-77,2051,2052,
19989,1541,1511,1986,1589,49500,76098,114807,49500,,IMU->,10,-78,2046,2047,
19989,1538,1456,1731,1584,49500,76098,114807,49500,,IMU->,10,-79,2047,2048,
19989,1532,1383,1504,1590,49500,76098,114807,49500,,IMU->,14,-78,2045,2046,
19989,1531,1321,1338,1586,49500,76098,114807,49500,,IMU->,10,-79,2047,2048,
19989,1535,1268,1148,1581,49500,76098,114807,49500,,IMU->,13,-79,2049,2050,
20324,1534,1208,1002,1577,49500,76098,114807,49500,,IMU->,12,-77,2049,2050,
19958,1533,1171,913,1581,49500,76098,114807,49500,,IMU->,8,-79,2049,2050,
19958,1533,1170,890,1579,49500,76098,114807,49500,,IMU->,8,-77,2049,2050,
19958,1548,1167,883,1593,49500,76098,114807,49500,,IMU->,12,-80,2050,2051,
19989,1539,1175,900,1580,49500,76098,114807,49500,,IMU->,12,-79,2050,2051,
19989,1524,1170,956,1575,49500,76098,114807,49500,,IMU->,7,-82,2049,2050,
19958,1528,1225,1046,1586,49500,76098,114807,49500,,IMU->,10,-78,2047,2048,
19958,1531,1230,1104,1570,49500,76098,114807,49500,,IMU->,11,-78,2055,2056,
19989,1536,1229,1116,1588,49500,76098,114807,49500,,IMU->,9,-78,2047,2048,
19958,1537,1255,1124,1593,49500,76098,114807,49500,,IMU->,11,-81,2049,2050,
19989,1537,1255,1133,1582,49500,76098,114807,49500,,IMU->,6,-80,2049,2050,
20324,1536,1247,1077,1584,49500,76098,114807,49500,,IMU->,10,-78,2049,2050,
19989,1536,1220,1022,1577,49500,76098,114807,49500,,IMU->,12,-82,2046,2047,
19989,1532,1180,924,1577,49500,76098,114807,49500,,IMU->,11,-80,2047,2048,
19958,1530,1174,890,1579,49500,76098,114807,49500,,IMU->,10,-82,2048,2049,
19958,1538,1154,847,1578,49500,76098,114807,49500,,IMU->,6,-76,2048,2049,
19958,1534,1135,770,1588,49500,76098,114807,49500,,IMU->,10,-79,2050,2051,
19989,1536,1113,714,1577,49500,76098,114807,49500,,IMU->,8,-78,2052,2053,
19958,1544,1101,690,1576,49500,76098,114807,49500,,IMU->,10,-79,2047,2048,
19989,1523,1092,639,1579,49500,76098,114807,49500,,IMU->,10,-78,2048,2049,
19958,1527,1064,631,1578,49500,76098,114807,49500,,IMU->,13,-80,2051,2052,
19989,1529,1060,577,1578,49500,76098,114807,49500,,IMU->,11,-81,2050,2051,
19958,1524,1067,585,1579,49500,76098,114807,49500,,IMU->,10,-79,2048,2049,
19989,1545,1066,572,1588,49500,76098,114807,49500,,IMU->,12,-79,2046,2047,
20324,1533,1055,538,1575,49500,76098,114807,49500,,IMU->,10,-78,2047,2048,
19989,1539,1042,529,1576,49500,76098,114807,49500,,IMU->,12,-76,2050,2051,
19989,1532,1041,524,1575,49500,76098,114807,49500,,IMU->,11,-77,2050,2051,
19958,1519,1029,514,1569,49500,76098,114807,49500,,IMU->,11,-78,2046,2047,
19958,1537,1036,515,1587,49500,76098,114807,49500,,IMU->,12,-82,2049,2050,
19989,1535,1041,487,1582,49500,76098,114807,49500,,IMU->,8,-79,2049,2050,
19958,1530,1019,485,1577,49500,76098,114807,49500,,IMU->,7,-81,2053,2054,
19958,1532,1024,451,1583,49500,76098,114807,49500,,IMU->,8,-79,2051,2052,
19958,1528,1009,432,1565,49500,76098,114807,49500,,IMU->,8,-81,2046,2047,
19958,1526,992,392,1577,49500,76098,114807,49500,,IMU->,11,-80,2050,2051,
19989,1523,1002,373,1581,49500,76098,114807,49500,,IMU->,9,-77,2052,2053,
20324,1532,979,360,1571,49500,76098,114807,49500,,IMU->,12,-79,2052,2053,
19989,1530,980,325,1582,49500,76098,114807,49500,,IMU->,10,-77,2046,2047,
19989,1531,985,322,1575,49500,76098,114807,49500,,IMU->,8,-80,2054,2055,
19958,1532,1010,450,1576,49500,76098,114807,49500,,IMU->,9,-78,2048,2049,
19958,1526,1117,780,1577,49500,76098,114807,49500,,IMU->,12,-78,2051,2052,
19989,1531,1254,1293,1572,49500,76098,114807,49500,,IMU->,10,-79,2047,2048,
19958,1535,1479,2017,1589,49500,76098,114807,49500,,IMU->,4,-81,2048,2049,
19958,1543,1713,2690,1591,49500,76098,114807,49500,,IMU->,6,-79,2048,2049,
19958,1549,1836,2975,1597,49500,76098,114807,49500,,IMU->,12,-78,2050,2051,
19958,1541,1870,2982,1604,49500,76098,114807,49500,,IMU->,8,-80,2051,2052,
19958,1544,1836,2978,1590,49500,76098,114807,49500,,IMU->,11,-78,2051,2052,
19989,1542,1787,2790,1588,49500,76098,114807,49500,,IMU->,11,-81,2051,2052,
20324,1541,1705,2536,1582,49500,76098,114807,49500,,IMU->,12,-77,2051,2052,
19958,1553,1604,2227,1593,49500,76098,114807,49500,,IMU->,9,-78,2045,2046,
19958,1543,1519,1924,1591,49500,76098,114807,49500,,IMU->,13,-79,2050,2051,
19989,1542,1434,1720,1587,49500,76098,114807,49500,,IMU->,10,-80,2051,2052,
19958,1541,1395,1577,1591,49500,76098,114807,49500,,IMU->,13,-78,2046,2047,
19989,1539,1352,1472,1578,49500,76098,114807,49500,,IMU->,10,-77,2048,2049,
19958,1535,1329,1455,1585,49500,76098,114807,49500,,IMU->,11,-79,2050,2051,
19989,1529,1354,1495,1585,49500,76098,114807,49500,,IMU->,7,-75,2047,2048,
19958,1539,1368,1586,1584,49500,76098,114807,49500,,IMU->,10,-81,2050,2051,
19958,1539,1397,1648,1590,49500,76098,114807,49500,,IMU->,13,-79,2051,2052,
19989,1542,1416,1716,1582,49500,76098,114807,49500,,IMU->,11,-79,2052,2053,
20324,1539,1423,1759,1587,49500,76098,114807,49500,,IMU->,11,-80,2048,2049,
19989,1546,1447,1784,1585,49500,76098,114807,49500,,IMU->,11,-78,2047,2048,
19989,1539,1418,1720,1580,49500,76098,114807,49500,,IMU->,13,-80,2050,2051,
19958,1537,1401,1649,1590,49500,76098,114807,49500,,IMU->,12,-80,2050,2051,
19989,1542,1382,1582,1578,49500,76098,114807,49500,,IMU->,11,-81,2051,2052,
19958,1538,1355,1512,1584,49500,76098,114807,49500,,IMU->,13,-75,2046,2047,
19958,1536,1325,1413,1588,49500,76098,114807,49500,,IMU->,6,-78,2047,2048,
19958,1544,1285,1304,1572,49500,76098,114807,49500,,IMU->,8,-77,2048,2049,
19958,1531,1255,1251,1586,49500,76098,114807,49500,,IMU->,9,-77,2049,2050,
19958,1533,1256,1211,1583,49500,76098,114807,49500,,IMU->,9,-80,2052,2053,
19958,1530,1213,1130,1585,49500,76098,114807,49500,,IMU->,10,-79,2047,2048,
20355,1532,1191,1066,1578,49500,76098,114807,49500,,IMU->,9,-75,2049,2050,
19958,1538,1179,1045,1576,49500,76098,114807,49500,,IMU->,9,-80,2051,2052,
19958,1530,1178,1029,1586,49500,76098,114807,49500,,IMU->,13,-75,2048,2049,
19989,1534,1174,1014,1581,49500,76098,114807,49500,,IMU->,11,-80,2051,2052,
19958,1543,1161,986,1589,49500,76098,114807,49500,,IMU->,10,-80,2046,2047,
19989,1534,1160,953,1591,49500,76098,114807,49500,,IMU->,12,-81,2050,2051,
19958,1540,1152,974,1581,49500,76098,114807,49500,,IMU->,8,-80,2049,2050,
19958,1534,1164,950,1583,49500,76098,114807,49500,,IMU->,8,-79,2046,2047,
19958,1521,1153,933,1577,49500,76098,114807,49500,,IMU->,11,-76,2052,2053,
19989,1531,1132,905,1582,49500,76098,114807,49500,,IMU->,12,-79,2049,2050,
19989,1528,1144,892,1585,49500,76098,114807,49500,,IMU->,8,-81,2045,2046,
19958,1535,1152,907,1579,49500,76098,114807,49500,,IMU->,12,-76,2050,2051,
20324,1534,1162,895,1580,49500,76098,114807,49500,,IMU->,12,-80,2044,2045,
19958,1530,1151,892,1579,49500,76098,114807,49500,,IMU->,11,-77,2050,2051,
19989,1539,1161,888,1585,49500,76098,114807,49500,,IMU->,8,-79,2048,2049,
19958,1534,1148,853,1585,49500,76098,114807,49500,,IMU->,10,-81,2046,2047,
19989,1532,1113,818,1582,49500,76098,114807,49500,,IMU->,8,-79,2052,2053,
19958,1538,1112,755,1583,49500,76098,114807,49500,,IMU->,9,-80,2046,2047,
19958,1537,1089,722,1573,49500,76098,114807,49500,,IMU->,6,-77,2053,2054,
19958,1536,1072,702,1584,49500,76098,114807,49500,,IMU->,11,-82,2047,2048,
19989,1526,1074,696,1581,49500,76098,114807,49500,,IMU->,10,-82,2049,2050,
19989,1524,1106,855,1575,49500,76098,114807,49500,,IMU->,10,-80,2050,2051,
19989,1525,1208,1186,1585,49500,76098,114807,49500,,IMU->,12,-79,2049,2050,
19989,1529,1377,1787,1582,49500,76098,114807,49500,,IMU->,10,-78,2048,2049,
20324,1543,1602,2527,1591,49500,76098,114807,49500,,IMU->,7,-79,2051,2052,
19958,1544,1807,2974,1590,49500,76098,114807,49500,,IMU->,9,-78,2046,2047,
19958,1544,1879,2980,1587,49500,76098,114807,49500,,IMU->,12,-81,2046,2047,
19989,1538,1900,2976,1597,49500,76098,114807,49500,,IMU->,10,-79,2049,2050,
19958,1548,1881,2975,1591,49500,76098,114807,49500,,IMU->,10,-76,2049,2050,
19989,1553,1832,2983,1592,49500,76098,114807,49500,,IMU->,12,-79,2050,2051,
19989,1547,1745,2722,1604,49500,76098,114807,49500,,IMU->,13,-80,2050,2051,
19989,1554,1640,2421,1591,49500,76098,114807,49500,,IMU->,11,-79,2047,2048,
19958,1545,1556,2167,1594,49500,76098,114807,49500,,IMU->,9,-77,2050,2051,
19958,1540,1501,2007,1590,49500,76098,114807,49500,,IMU->,8,-79,2050,2051,
19958,1544,1437,1852,1590,49500,76098,114807,49500,,IMU->,9,-77,2046,2047,
19958,1523,1406,1770,1583,49500,76098,114807,49500,,IMU->,11,-80,2051,2052,
20324,1543,1412,1791,1590,49500,76098,114807,49500,,IMU->,10,-79,2050,2051,
19958,1555,1448,1885,1597,49500,76098,114807,49500,,IMU->,9,-77,2051,2052,
19958,1542,1469,1967,1592,49500,76098,114807,49500,,IMU->,9,-80,2051,2052,
19958,1547,1496,2059,1591,49500,76098,114807,49500,,IMU->,11,-78,2047,2048,
19958,1543,1531,2166,1587,49500,76098,114807,49500,,IMU->,9,-81,2047,2048,
19958,1539,1561,2281,1581,49500,76098,114807,49500,,IMU->,8,-79,2048,2049,
19958,1538,1567,2258,1587,49500,76098,114807,49500,,IMU->,10,-80,2050,2051,
19958,1532,1547,2204,1589,49500,76098,114807,49500,,IMU->,11,-80,2048,2049,
19989,1559,1539,2162,1599,49500,76098,114807,49500,,IMU->,8,-76,2048,2049,
20324,1549,1525,2081,1594,49500,76098,114807,49500,,IMU->,10,-79,2048,2049,
19989,1537,1467,1955,1585,49500,76098,114807,49500,,IMU->,7,-78,2049,2050,
19958,1547,1434,1856,1590,49500,76098,114807,49500,,IMU->,11,-78,2051,2052,
19989,1539,1406,1758,1578,49500,76098,114807,49500,,IMU->,9,-78,2048,2049,
19958,1540,1389,1740,1589,49500,76098,114807,49500,,IMU->,8,-80,2047,2048,
19958,1547,1390,1687,1595,49500,76098,114807,49500,,IMU->,11,-79,2050,2051,
19989,1545,1350,1621,1574,49500,76098,114807,49500,,IMU->,10,-78,2054,2055,
19989,1535,1341,1584,1593,49500,76098,114807,49500,,IMU->,12,-81,2049,2050,
19989,1538,1360,1621,1586,49500,76098,114807,49500,,IMU->,9,-82,2051,2052,
19958,1538,1350,1641,1584,49500,76098,114807,49500,,IMU->,9,-78,2052,2053,
19958,1535,1346,1610,1589,49500,76098,114807,49500,,IMU->,10,-81,2046,2047,
19958,1536,1333,1614,1590,49500,76098,114807,49500,,IMU->,11,-81,2045,2046,
19989,1541,1341,1606,1592,49500,76098,114807,49500,,IMU->,8,-79,2049,2050,
20324,1539,1331,1578,1580,49500,76098,114807,49500,,IMU->,12,-81,2051,2052,
19989,1541,1311,1576,1581,49500,76098,114807,49500,,IMU->,10,-77,2046,2047,
19989,1531,1302,1541,1584,49500,76098,114807,49500,,IMU->,7,-81,2046,2047,
19958,1541,1299,1530,1582,49500,76098,114807,49500,,IMU->,7,-79,2048,2049,
19958,1539,1298,1502,1588,49500,76098,114807,49500,,IMU->,10,-79,2050,2051,
19989,1538,1284,1475,1589,49500,76098,114807,49500,,IMU->,9,-79,2048,2049,
19958,1544,1278,1443,1592,49500,76098,114807,49500,,IMU->,13,-79,2050,2051,
19989,1536,1275,1442,1584,49500,76098,114807,49500,,IMU->,7,-79,2047,2048,
19958,1530,1285,1495,1577,49500,76098,114807,49500,,IMU->,8,-77,2051,2052,
19958,1535,1284,1511,1582,49500,76098,114807,49500,,IMU->,15,-77,2046,2047,
19989,1524,1284,1569,1575,49500,76098,114807,49500,,IMU->,8,-77,2049,2050,
19958,1529,1299,1670,1591,49500,75933,114576,49500,,IMU->,9,-77,2048,2049,
20324,1546,1015,1586,1591,49500,75933,114576,49500,,IMU->,8,-79,2050,2051,
19958,1543,982,1598,1584,49500,75933,114576,49500,,IMU->,10,-79,2047,2048,
19989,1541,995,1619,1594,49500,75933,114576,49500,,IMU->,10,-79,2046,2047,
19958,1533,997,1658,1576,49500,75933,114576,49500,,IMU->,12,-79,2051,2052,
19989,1533,1021,1813,1581,49500,75933,114576,49500,,IMU->,10,-79,2048,2049,
19958,1539,1134,2176,1590,49500,75933,114576,49500,,IMU->,12,-82,2047,2048,
19958,1541,1316,2878,1585,49500,75933,114576,49500,,IMU->,9,-81,2048,2049,
19958,1545,1573,2977,1603,49500,75933,114576,49500,,IMU->,9,-83,2051,2052,
19958,1550,1780,2980,1604,49500,75933,114576,49500,,IMU->,11,-77,2052,2053,
19958,1540,1846,2975,1603,49500,75933,114576,49500,,IMU->,11,-76,2049,2050,
20324,1557,1869,2980,1606,49500,75933,114576,49500,,IMU->,5,-78,2051,2052,
19958,1555,1852,2982,1596,49500,75933,114576,49500,,IMU->,9,-81,2051,2052,
19958,1544,1802,2980,1612,49500,75933,114576,49500,,IMU->,8,-81,2045,2046,
19958,1560,1724,2979,1601,49500,75933,114576,49500,,IMU->,10,-81,2051,2052,
19989,1564,1622,2980,1601,49500,75933,114576,49500,,IMU->,7,-80,2048,2049,
19958,1550,1514,2981,1605,49500,75933,114576,49500,,IMU->,12,-79,2050,2051,
19958,1550,1407,2979,1599,49500,75933,114576,49500,,IMU->,7,-82,2048,2049,
19958,1547,1338,2792,1592,49500,75933,114576,49500,,IMU->,12,-78,2052,2053,
19989,1537,1319,2758,1597,49500,75933,114576,49500,,IMU->,9,-82,2045,2046,
19958,1555,1318,2776,1600,49500,75933,114576,49500,,IMU->,12,-81,2049,2050,
20324,1543,1323,2793,1592,49500,75933,114576,49500,,IMU->,12,-81,2052,2053,
19989,1550,1337,2889,1600,49500,75933,114576,49500,,IMU->,9,-79,2049,2050,
19958,1554,1389,2977,1601,49500,75933,114576,49500,,IMU->,13,-82,2047,2048,
19989,1546,1455,2981,1591,49500,75933,114576,49500,,IMU->,7,-79,2053,2054,
19958,1549,1474,2978,1600,49500,75933,114576,49500,,IMU->,12,-78,2047,2048,
19989,1552,1466,2972,1605,49500,75933,114576,49500,,IMU->,11,-83,2048,2049,
19989,1549,1431,2980,1593,49500,75933,114576,49500,,IMU->,8,-76,2051,2052,
19958,1550,1422,2981,1600,49500,75933,114576,49500,,IMU->,10,-78,2050,2051,
19989,1545,1390,2962,1592,49500,75933,114576,49500,,IMU->,12,-78,2049,2050,
19958,1548,1317,2801,1592,49500,75933,114576,49500,,IMU->,11,-78,2047,2048,
19989,1541,1279,2667,1594,49500,75933,114576,49500,,IMU->,11,-81,2051,2052,
19958,1537,1249,2586,1590,49500,75933,114576,49500,,IMU->,9,-81,2047,2048,
20324,1546,1216,2501,1595,49500,75933,114576,49500,,IMU->,9,-78,2046,2047,
19958,1551,1198,2406,1589,49500,75933,114576,49500,,IMU->,9,-85,2049,2050,
19958,1546,1159,2358,1591,49500,75933,114576,49500,,IMU->,8,-77,2052,2053,
19958,1546,1165,2342,1601,49500,75933,114576,49500,,IMU->,7,-75,2050,2051,
19958,1545,1139,2294,1581,49500,75933,114576,49500,,IMU->,12,-79,2050,2051,
19989,1539,1109,2222,1590,49500,75933,114576,49500,,IMU->,14,-81,2051,2052,
19958,1542,1097,2190,1591,49500,75933,114576,49500,,IMU->,8,-82,2050,2051,
19958,1556,1099,2180,1589,49500,75933,114576,49500,,IMU->,9,-81,2049,2050,
19958,1537,1082,2138,1596,49500,75933,114576,49500,,IMU->,11,-78,2049,2050,
19989,1550,1070,2135,1598,49500,75933,114576,49500,,IMU->,10,-82,2050,2051,
19989,1556,1061,2081,1590,49500,75933,114576,49500,,IMU->,9,-81,2049,2050,
20324,1541,1048,2066,1586,49500,75933,114576,49500,,IMU->,7,-79,2047,2048,
19958,1553,1044,2059,1597,49500,75933,114576,49500,,IMU->,9,-78,2045,2046,
19958,1537,1041,2018,1595,49500,75933,114576,49500,,IMU->,10,-78,2052,2053,
19989,1541,1028,2009,1587,49500,75933,114576,49500,,IMU->,6,-80,2051,2052,
19958,1547,1020,1971,1597,49500,75933,114576,49500,,IMU->,11,-81,2053,2054,
19989,1538,1007,1913,1584,49500,75933,114576,49500,,IMU->,15,-79,2049,2050,
19958,1550,985,1877,1590,49500,75933,114576,49500,,IMU->,10,-77,2047,2048,
19989,1541,980,1831,1592,49500,75933,114576,49500,,IMU->,10,-80,2048,2049,
19958,1541,970,1820,1586,49500,75933,114576,49500,,IMU->,9,-81,2050,2051,
19958,1542,962,1761,1593,49500,75933,114576,49500,,IMU->,11,-83,2048,2049,
19989,1540,941,1725,1585,49500,75933,114576,49500,,IMU->,11,-79,2050,2051,
20324,1540,936,1726,1586,49500,75933,114576,49500,,IMU->,11,-78,2051,2052,
19958,1543,982,1857,1597,49500,75933,114576,49500,,IMU->,10,-76,2056,2057,
19989,1548,1045,2151,1589,49500,75933,114576,49500,,IMU->,10,-77,2050,2051,
19989,1544,1214,2707,1598,49500,75933,114576,49500,,IMU->,12,-79,2051,2052,
19989,1549,1448,2981,1600,49500,75933,114576,49500,,IMU->,10,-82,2050,2051,
19958,1552,1640,2982,1600,49500,75933,114576,49500,,IMU->,11,-78,2051,2052,
19958,1558,1744,2981,1609,49500,75933,114576,49500,,IMU->,9,-80,2050,2051,
19989,1555,1778,2981,1595,49500,75933,114576,49500,,IMU->,10,-79,2047,2048,
19958,1550,1768,2980,1605,49500,75933,114576,49500,,IMU->,8,-75,2047,2048,
19958,1560,1719,2981,1606,49500,75933,114576,49500,,IMU->,12,-80,2051,2052,
19989,1566,1598,2981,1608,49500,75933,114576,49500,,IMU->,10,-83,2050,2051,
19958,1554,1479,2980,1608,49500,75933,114576,49500,,IMU->,10,-73,2047,2048,
19989,1555,1376,2979,1597,49500,75933,114576,49500,,IMU->,7,-78,2046,2047,
20324,1555,1312,2834,1601,49500,75933,114576,49500,,IMU->,9,-78,2046,2047,
19958,1556,1258,2688,1593,49500,75933,114576,49500,,IMU->,11,-80,2048,2049,
19989,1553,1219,2639,1598,49500,75933,114576,49500,,IMU->,9,-78,2049,2050,
19958,1549,1222,2629,1602,49500,75933,114576,49500,,IMU->,10,-77,2051,2052,
19958,1555,1246,2703,1596,49500,75933,114576,49500,,IMU->,9,-80,2052,2053,
19958,1557,1278,2803,1605,49500,75933,114576,49500,,IMU->,12,-81,2047,2048,
19989,1543,1316,2914,1591,49500,75933,114576,49500,,IMU->,9,-81,2047,2048,
19958,1548,1352,2977,1593,49500,75933,114576,49500,,IMU->,9,-78,2050,2051,
19958,1544,1369,2981,1600,49500,75933,114576,49500,,IMU->,11,-80,2052,2053,
19958,1543,1364,2978,1598,49500,75933,114576,49500,,IMU->,10,-80,2050,2051,
20324,1555,1352,2974,1604,49500,75933,114576,49500,,IMU->,10,-79,2049,2050,
19958,1548,1347,2970,1591,49500,75933,114576,49500,,IMU->,10,-81,2052,2053,
19989,1550,1318,2888,1595,49500,75933,114576,49500,,IMU->,9,-80,2052,2053,
19958,1549,1275,2741,1598,49500,75933,114576,49500,,IMU->,11,-78,2049,2050,
19989,1542,1226,2612,1588,49500,75933,114576,49500,,IMU->,13,-79,2048,2049,
19958,1543,1207,2528,1598,49500,75933,114576,49500,,IMU->,9,-76,2050,2051,
19958,1550,1195,2480,1594,49500,75933,114576,49500,,IMU->,12,-79,2048,2049,
19989,1552,1169,2419,1592,49500,75933,114576,49500,,IMU->,10,-79,2050,2051,
19958,1540,1150,2330,1599,49500,75933,114576,49500,,IMU->,12,-80,2047,2048,
19989,1535,1122,2297,1580,49500,75933,114576,49500,,IMU->,10,-79,2049,2050,
19958,1533,1099,2236,1590,49500,75933,114576,49500,,IMU->,13,-80,2051,2052,
20324,1537,1079,2172,1580,49500,75933,114576,49500,,IMU->,11,-79,2048,2049,
19958,1544,1046,2118,1589,49500,75933,114576,49500,,IMU->,8,-80,2050,2051,
19989,1553,1052,2097,1603,49500,75933,114576,49500,,IMU->,9,-77,2051,2052,
19958,1551,1046,2076,1583,49500,75933,114576,49500,,IMU->,11,-77,2049,2050,
19989,1535,1038,2054,1591,49500,75933,114576,49500,,IMU->,9,-79,2048,2049,
19958,1540,1025,2021,1589,49500,75933,114576,49500,,IMU->,11,-80,2045,2046,
19958,1540,1018,2007,1581,49500,75933,114576,49500,,IMU->,9,-77,2047,2048,
19958,1533,1022,1987,1596,49500,75933,114576,49500,,IMU->,7,-81,2053,2054,
19958,1540,1014,1982,1592,49500,75933,114576,49500,,IMU->,10,-79,2049,2050,
19958,1544,1006,1922,1598,49500,75933,114576,49500,,IMU->,11,-81,2051,2052,
19989,1547,1003,1918,1589,49500,75933,114576,49500,,IMU->,6,-81,2051,2052,
20324,1544,1008,1931,1583,49500,75933,114576,49500,,IMU->,10,-78,2047,2048,
19958,1531,1010,1915,1591,49500,75933,114576,49500,,IMU->,10,-80,2047,2048,
19958,1545,992,1919,1580,49500,75933,114576,49500,,IMU->,10,-75,2049,2050,
19989,1535,1031,2078,1590,49500,75933,114576,49500,,IMU->,9,-80,2045,2046,
19958,1538,1175,2539,1592,49500,75933,114576,49500,,IMU->,7,-80,2050,2051,
19989,1553,1396,2978,1597,49500,75933,114576,49500,,IMU->,12,-82,2046,2047,
19958,1550,1616,2982,1600,49500,75933,114576,49500,,IMU->,11,-77,2049,2050,
19958,1551,1749,2979,1597,49500,75933,114576,49500,,IMU->,11,-79,2046,2047,
19989,1555,1842,2980,1602,49500,75933,114576,49500,,IMU->,8,-80,2049,2050,
19958,1546,1881,2982,1598,49500,75933,114576,49500,,IMU->,11,-78,2051,2052,
19989,1559,1841,2982,1606,49500,75933,114576,49500,,IMU->,8,-81,2050,2051,
20324,1560,1775,2976,1609,49500,75933,114576,49500,,IMU->,11,-82,2049,2050,
19989,1552,1680,2979,1595,49500,75933,114576,49500,,IMU->,9,-78,2049,2050,
19958,1556,1598,2978,1599,49500,75933,114576,49500,,IMU->,12,-80,2052,2053,
19989,1548,1500,2978,1594,49500,75933,114576,49500,,IMU->,13,-81,2047,2048,
19958,1553,1380,2978,1595,49500,75933,114576,49500,,IMU->,8,-83,2047,2048,
19958,1551,1341,2977,1599,49500,75933,114576,49500,,IMU->,10,-79,2053,2054,
19989,1552,1316,2932,1593,49500,75933,114576,49500,,IMU->,10,-80,2046,2047,
19989,1549,1293,2904,1601,49500,75933,114576,49500,,IMU->,13,-77,2047,2048,
19958,1548,1316,2960,1593,49500,75933,114576,49500,,IMU->,9,-79,2048,2049,
19958,1550,1347,2976,1585,49500,75933,114576,49500,,IMU->,7,-83,2048,2049,
19958,1540,1397,2979,1598,49500,75933,114576,49500,,IMU->,12,-83,2051,2052,
19989,1550,1424,2978,1594,49500,75933,114576,49500,,IMU->,12,-78,2046,2047,
19989,1547,1425,2975,1601,49500,75933,114576,49500,,IMU->,13,-80,2050,2051,
19989,1553,1449,2975,1601,49500,75933,114576,49500,,IMU->,10,-81,2047,2048,
20324,1553,1429,2980,1597,49500,75933,114576,49500,,IMU->,10,-80,2050,2051,
19989,1543,1397,2980,1598,49500,75933,114576,49500,,IMU->,10,-81,2047,2048,
19958,1549,1353,2976,1591,49500,75933,114576,49500,,IMU->,11,-79,2053,2054,
19958,1542,1319,2965,1588,49500,75933,114576,49500,,IMU->,10,-79,2047,2048,
19989,1538,1289,2869,1593,49500,75933,114576,49500,,IMU->,11,-81,2052,2053,
19958,1554,1257,2777,1591,49500,75933,114576,49500,,IMU->,9,-78,2048,2049,
19958,1546,1237,2691,1590,49500,75933,114576,49500,,IMU->,10,-81,2048,2049,
19989,1540,1210,2655,1599,49500,75933,114576,49500,,IMU->,8,-78,2049,2050,
19958,1553,1195,2580,1596,49500,75933,114576,49500,,IMU->,11,-82,2047,2048,
19989,1533,1169,2526,1580,49500,75933,114576,49500,,IMU->,8,-79,2050,2051,
19958,1534,1159,2510,1589,49500,75933,114576,49500,,IMU->,13,-78,2052,2053,
19989,1541,1153,2471,1595,49500,75933,114576,49500,,IMU->,13,-78,2048,2049,
20324,1544,1126,2420,1584,49500,75933,114576,49500,,IMU->,13,-82,2048,2049,
19989,1547,1116,2398,1597,49500,75933,114576,49500,,IMU->,9,-79,2050,2051,
19958,1541,1107,2354,1588,49500,75933,114576,49500,,IMU->,7,-80,2049,2050,
19958,1541,1088,2322,1592,49500,75933,114576,49500,,IMU->,12,-79,2048,2049,
19958,1539,1071,2266,1589,49500,75933,114576,49500,,IMU->,8,-79,2048,2049,
19958,1537,1053,2223,1583,49500,75933,114576,49500,,IMU->,6,-80,2050,2051,
19989,1542,1052,2201,1591,49500,75933,114576,49500,,IMU->,10,-79,2048,2049,
19958,1536,1039,2167,1582,49500,75933,114576,49500,,IMU->,12,-79,2048,2049,
19989,1540,1004,2105,1583,49500,75933,114576,49500,,IMU->,13,-80,2051,2052,
19958,1537,1020,2082,1597,49500,75933,114576,49500,,IMU->,6,-80,2048,2049,
20324,1547,1005,2065,1577,49500,75933,114576,49500,,IMU->,10,-83,2052,2053,
19958,1538,988,2022,1590,49500,75933,114576,49500,,IMU->,10,-82,2049,2050,
19989,1542,985,1973,1592,49500,75933,114576,49500,,IMU->,12,-77,2051,2052,
19989,1547,978,1961,1583,49500,75834,113025,49500,,IMU->,9,-80,2046,2047,
19958,1533,979,322,1588,49500,75834,113025,49500,,IMU->,16,-82,2045,2046,
19958,1537,1007,479,1589,49500,75834,113025,49500,,IMU->,10,-80,2048,2049,
19958,1545,1113,837,1591,49500,75834,113025,49500,,IMU->,9,-81,2051,2052,
19958,1537,1328,1618,1589,49500,75834,113025,49500,,IMU->,8,-78,2049,2050,
19958,1549,1620,2499,1601,49500,75834,113025,49500,,IMU->,8,-76,2048,2049,
19958,1550,1832,2977,1608,49500,75834,113025,49500,,IMU->,11,-76,2053,2054,
19989,1564,1942,2981,1603,49500,75834,113025,49500,,IMU->,9,-83,2049,2050,
20324,1563,1987,2977,1611,49500,75834,113025,49500,,IMU->,11,-79,2049,2050,
19958,1549,1978,2979,1602,49500,75834,113025,49500,,IMU->,10,-79,2050,2051,
19989,1563,1927,2979,1606,49500,75834,113025,49500,,IMU->,9,-80,2052,2053,
19958,1563,1864,2977,1606,49500,75834,113025,49500,,IMU->,11,-78,2052,2053,
19958,1553,1775,2804,1606,49500,75834,113025,49500,,IMU->,11,-81,2050,2051,
