2,61494263,61504425,40,87116,45,
2179,2180,2173,2176,2179,2179,2175,2173,2183,2180,2181,2182,2179,2172,2182,2181,2178,2178,2174,2170,2173,2181,2179,2176,2173,2178,2180,2179,2181,2182,2180,2178,2176,2176,2179,2179,2180,2178,2178,2176,nan,nan,nan,nan,nan,
61495972,61496185,61496399,61496613,61496826,61497040,61497253,61497467,61497681,61497894,61498108,61498322,61498535,61498749,61498962,61499176,61499390,61499603,61499817,61500031,61500244,61500458,61500671,61500885,61501099,61501312,61501526,61501740,61501953,61502167,61502380,61502594,61502808,61503021,61503235,61503448,61503662,61503876,61504089,61504303,nan,nan,nan,nan,nan,
3,61511536,61521698,41,89115,45,
2180,2176,2179,2176,2173,2176,2174,2167,2174,2170,2167,2169,2166,2174,2175,2179,2173,2173,2178,2179,2173,2173,2173,2172,2173,2167,2170,2171,2179,2170,2170,2177,2176,2171,2173,2173,2179,2177,2173,2176,2171,nan,nan,nan,nan,
61513000,61513245,61513458,61513672,61513885,61514099,61514313,61514526,61514740,61514954,61515167,61515381,61515594,61515808,61516022,61516235,61516449,61516663,61516876,61517090,61517303,61517517,61517731,61517944,61518158,61518372,61518585,61518799,61519012,61519226,61519440,61519653,61519867,61520081,61520294,61520508,61520721,61520935,61521149,61521362,61521576,nan,nan,nan,nan,
0,61528900,61539063,40,87257,45,
2173,2188,2180,2179,2186,2179,2184,2182,2184,2173,2184,2183,2176,2183,2185,2184,2179,2184,2180,2176,2179,2186,2178,2188,2179,2184,2178,2184,2183,2181,2181,2181,2187,2186,2178,2180,2180,2181,2182,2179,nan,nan,nan,nan,nan,
61530579,61530823,61531036,61531250,61531464,61531677,61531891,61532104,61532318,61532532,61532745,61532959,61533173,61533386,61533600,61533813,61534027,61534241,61534454,61534668,61534882,61535095,61535309,61535522,61535736,61535950,61536163,61536377,61536591,61536804,61537018,61537231,61537445,61537659,61537872,61538086,61538300,61538513,61538727,61538940,nan,nan,nan,nan,nan,
1,61546173,61556183,40,86950,45,
2175,2173,2170,2173,2174,2175,2179,2172,2171,2173,2168,2174,2171,2173,2173,2170,2174,2173,2173,2171,2173,2170,2172,2172,2173,2175,2176,2176,2179,2173,2172,2174,2173,2174,2176,2175,2179,2178,2173,2182,nan,nan,nan,nan,nan,
61547699,61547943,61548157,61548370,61548584,61548798,61549011,61549225,61549438,61549652,61549866,61550079,61550293,61550507,61550720,61550934,61551147,61551361,61551575,61551788,61552002,61552216,61552429,61552643,61552856,61553070,61553284,61553497,61553711,61553925,61554138,61554352,61554565,61554779,61554993,61555206,61555420,61555634,61555847,61556061,nan,nan,nan,nan,nan,
2,61563293,61573456,41,89258,45,
2173,2169,2180,2172,2176,2173,2176,2180,2179,2171,2180,2178,2179,2173,2173,2180,2167,2176,2176,2178,2176,2180,2183,2174,2178,2173,2178,2176,2178,2182,2178,2181,2180,2177,2180,2183,2177,2176,2179,2185,2175,nan,nan,nan,nan,
61564789,61565002,61565216,61565430,61565643,61565857,61566071,61566284,61566498,61566711,61566925,61567139,61567352,61567566,61567780,61567993,61568207,61568420,61568634,61568848,61569061,61569275,61569489,61569702,61569916,61570129,61570343,61570557,61570770,61570984,61571198,61571411,61571625,61571838,61572052,61572266,61572479,61572693,61572906,61573120,61573334,nan,nan,nan,nan,
3,61580658,61590820,40,86894,45,
2170,2170,2177,2170,2173,2166,2176,2173,2173,2175,2171,2172,2179,2168,2171,2170,2176,2171,2169,2173,2174,2173,2179,2173,2173,2172,2174,2173,2167,2167,2178,2171,2167,2174,2177,2177,2172,2173,2167,2170,nan,nan,nan,nan,nan,
61582336,61582581,61582794,61583008,61583221,61583435,61583649,61583862,61584076,61584290,61584503,61584717,61584930,61585144,61585358,61585571,61585785,61585999,61586212,61586426,61586639,61586853,61587067,61587280,61587494,61587708,61587921,61588135,61588348,61588562,61588776,61588989,61589203,61589417,61589630,61589844,61590057,61590271,61590485,61590698,nan,nan,nan,nan,nan,
0,61597931,61608002,41,89431,45,
2176,2179,2176,2179,2182,2181,2177,2184,2181,2181,2185,2186,2178,2183,2178,2188,2179,2183,2187,2178,2184,2182,2179,2185,2181,2184,2188,2180,2178,2182,2178,2181,2176,2177,2178,2181,2182,2183,2187,2183,2181,nan,nan,nan,nan,
61599304,61599548,61599762,61599976,61600189,61600403,61600616,61600830,61601044,61601257,61601471,61601685,61601898,61602112,61602325,61602539,61602753,61602966,61603180,61603394,61603607,61603821,61604034,61604248,61604462,61604675,61604889,61605103,61605316,61605530,61605743,61605957,61606171,61606384,61606598,61606812,61607025,61607239,61607452,61607666,61607880,nan,nan,nan,nan,
1,61615204,61625366,40,86928,45,
2171,2170,2174,2171,2174,2168,2170,2173,2171,2174,2170,2180,2171,2168,2172,2175,2175,2171,2175,2177,2175,2176,2173,2173,2172,2172,2176,2170,2172,2180,2173,2174,2170,2179,2169,2179,2176,2170,2173,2176,nan,nan,nan,nan,nan,
61616882,61617126,61617340,61617554,61617767,61617981,61618195,61618408,61618622,61618835,61619049,61619263,61619476,61619690,61619904,61620117,61620331,61620544,61620758,61620972,61621185,61621399,61621613,61621826,61622040,61622253,61622467,61622681,61622894,61623108,61623322,61623535,61623749,61623962,61624176,61624390,61624603,61624817,61625031,61625244,nan,nan,nan,nan,nan,
2,61632477,61642639,41,89235,45,
2179,2173,2172,2173,2181,2175,2173,2174,2170,2176,2180,2181,2170,2182,2179,2175,2178,2176,2174,2177,2178,2172,2179,2178,2179,2176,2173,2179,2176,2180,2176,2173,2177,2180,2172,2181,2182,2171,2178,2178,2179,nan,nan,nan,nan,
61633942,61634186,61634399,61634613,61634827,61635040,61635254,61635468,61635681,61635895,61636108,61636322,61636536,61636749,61636963,61637177,61637390,61637604,61637817,61638031,61638245,61638458,61638672,61638885,61639099,61639313,61639526,61639740,61639954,61640167,61640381,61640594,61640808,61641022,61641235,61641449,61641663,61641876,61642090,61642303,61642517,nan,nan,nan,nan,
3,61649841,61659973,40,86842,45,
2175,2170,2172,2170,2166,2172,2173,2168,2169,2170,2171,2170,2173,2173,2172,2173,2170,2172,2173,2171,2170,2170,2174,2170,2170,2171,2164,2176,2170,2173,2176,2167,2171,2170,2170,2173,2168,2175,2168,2173,nan,nan,nan,nan,nan,
61651520,61651733,61651947,61652161,61652374,61652588,61652802,61653015,61653229,61653442,61653656,61653870,61654083,61654297,61654510,61654724,61654938,61655151,61655365,61655579,61655792,61656006,61656219,61656433,61656647,61656860,61657074,61657288,61657501,61657715,61657928,61658142,61658356,61658569,61658783,61658997,61659210,61659424,61659637,61659851,nan,nan,nan,nan,nan,
0,61667084,61677246,41,89456,45,
2185,2186,2184,2181,2178,2181,2184,2178,2182,2181,2184,2180,2179,2176,2181,2183,2183,2184,2181,2185,2182,2181,2182,2186,2181,2181,2178,2184,2178,2173,2179,2181,2184,2178,2185,2187,2187,2187,2182,2183,2181,nan,nan,nan,nan,
61668549,61668793,61669006,61669220,61669434,61669647,61669861,61670074,61670288,61670502,61670715,61670929,61671143,61671356,61671570,61671783,61671997,61672211,61672424,61672638,61672852,61673065,61673279,61673492,61673706,61673920,61674133,61674347,61674561,61674774,61674988,61675201,61675415,61675629,61675842,61676056,61676270,61676483,61676697,61676910,61677124,nan,nan,nan,nan,
1,61684448,61694611,40,86970,45,
2170,2176,2175,2176,2173,2181,2170,2174,2177,2170,2173,2170,2173,2179,2173,2173,2173,2174,2173,2173,2176,2173,2178,2178,2173,2172,2173,2175,2179,2173,2171,2173,2175,2178,2176,2174,2179,2171,2174,2173,nan,nan,nan,nan,nan,
61686127,61686371,61686584,61686798,61687012,61687225,61687439,61687653,61687866,61688080,61688293,61688507,61688721,61688934,61689148,61689362,61689575,61689789,61690002,61690216,61690430,61690643,61690857,61691071,61691284,61691498,61691711,61691925,61692139,61692352,61692566,61692780,61692993,61693207,61693420,61693634,61693848,61694061,61694275,61694489,nan,nan,nan,nan,nan,
2,61701721,61711914,41,89271,45,
2172,2173,2178,2179,2177,2179,2180,2180,2177,2181,2183,2178,2181,2180,2173,2173,2176,2183,2172,2173,2181,2172,2172,2176,2178,2179,2178,2178,2178,2180,2180,2180,2177,2179,2176,2173,2173,2178,2184,2173,2178,nan,nan,nan,nan,
61703217,61703461,61703674,61703888,61704102,61704315,61704529,61704742,61704956,61705170,61705383,61705597,61705811,61706024,61706238,61706451,61706665,61706879,61707092,61707306,61707520,61707733,61707947,61708160,61708374,61708588,61708801,61709015,61709229,61709442,61709656,61709869,61710083,61710297,61710510,61710724,61710938,61711151,61711365,61711578,61711792,nan,nan,nan,nan,
3,61719086,61729248,40,86942,45,
2167,2179,2171,2176,2170,2173,2173,2171,2179,2173,2173,2178,2170,2175,2173,2169,2177,2176,2171,2174,2170,2176,2172,2173,2168,2173,2171,2173,2172,2170,2179,2179,2173,2173,2173,2179,2177,2173,2173,2177,nan,nan,nan,nan,nan,
61720764,61721008,61721222,61721436,61721649,61721863,61722076,61722290,61722504,61722717,61722931,61723145,61723358,61723572,61723785,61723999,61724213,61724426,61724640,61724854,61725067,61725281,61725494,61725708,61725922,61726135,61726349,61726563,61726776,61726990,61727203,61727417,61727631,61727844,61728058,61728271,61728485,61728699,61728912,61729126,nan,nan,nan,nan,nan,
0,61736359,61746521,41,89433,45,
2175,2183,2185,2177,2178,2180,2184,2184,2179,2181,2173,2178,2178,2181,2178,2184,2178,2181,2184,2187,2183,2185,2181,2187,2184,2181,2184,2187,2177,2176,2190,2178,2181,2178,2181,2182,2184,2181,2182,2185,2178,nan,nan,nan,nan,
61737823,61738068,61738281,61738495,61738708,61738922,61739136,61739349,61739563,61739777,61739990,61740204,61740417,61740631,61740845,61741058,61741272,61741486,61741699,61741913,61742126,61742340,61742554,61742767,61742981,61743195,61743408,61743622,61743835,61744049,61744263,61744476,61744690,61744904,61745117,61745331,61745544,61745758,61745972,61746185,61746399,nan,nan,nan,nan,
1,61753723,61763916,40,86993,45,
2168,2171,2173,2178,2179,2176,2176,2173,2176,2170,2179,2178,2177,2178,2168,2178,2172,2170,2173,2180,2178,2170,2179,2178,2176,2174,2173,2179,2172,2172,2170,2175,2175,2176,2176,2176,2176,2170,2179,2176,nan,nan,nan,nan,nan,
61755432,61755676,61755890,61756104,61756317,61756531,61756744,61756958,61757172,61757385,61757599,61757813,61758026,61758240,61758453,61758667,61758881,61759094,61759308,61759521,61759735,61759949,61760162,61760376,61760590,61760803,61761017,61761230,61761444,61761658,61761871,61762085,61762299,61762512,61762726,61762939,61763153,61763367,61763580,61763794,nan,nan,nan,nan,nan,
2,61771027,61781189,41,89226,45,
2173,2176,2177,2173,2178,2177,2178,2176,2179,2176,2175,2170,2182,2170,2177,2177,2173,2179,2182,2178,2176,2179,2184,2178,2173,2174,2176,2179,2175,2179,2179,2172,2177,2176,2175,2178,2176,2174,2174,2173,2173,nan,nan,nan,nan,
61772491,61772736,61772949,61773163,61773376,61773590,61773804,61774017,61774231,61774445,61774658,61774872,61775085,61775299,61775513,61775726,61775940,61776154,61776367,61776581,61776794,61777008,61777222,61777435,61777649,61777863,61778076,61778290,61778503,61778717,61778931,61779144,61779358,61779572,61779785,61779999,61780212,61780426,61780640,61780853,61781067,nan,nan,nan,nan,
3,61788391,61798523,40,86916,45,
2176,2171,2173,2170,2174,2173,2171,2167,2173,2174,2173,2173,2179,2167,2178,2179,2173,2179,2165,2170,2173,2181,2170,2173,2168,2172,2170,2171,2173,2167,2172,2179,2179,2173,2173,2176,2170,2176,2169,2173,nan,nan,nan,nan,nan,
61790070,61790283,61790497,61790710,61790924,61791138,61791351,61791565,61791779,61791992,61792206,61792419,61792633,61792847,61793060,61793274,61793488,61793701,61793915,61794128,61794342,61794556,61794769,61794983,61795197,61795410,61795624,61795837,61796051,61796265,61796478,61796692,61796906,61797119,61797333,61797546,61797760,61797974,61798187,61798401,nan,nan,nan,nan,nan,
0,61805634,61815796,41,89468,45,
2182,2178,2181,2183,2185,2184,2178,2184,2178,2180,2187,2178,2187,2177,2180,2176,2189,2183,2184,2180,2181,2189,2184,2182,2184,2181,2188,2181,2189,2181,2180,2176,2181,2176,2176,2189,2188,2179,2187,2181,2181,nan,nan,nan,nan,
61807129,61807343,61807556,61807770,61807983,61808197,61808411,61808624,61808838,61809052,61809265,61809479,61809692,61809906,61810120,61810333,61810547,61810760,61810974,61811188,61811401,61811615,61811829,61812042,61812256,61812469,61812683,61812897,61813110,61813324,61813538,61813751,61813965,61814178,61814392,61814606,61814819,61815033,61815247,61815460,61815674,nan,nan,nan,nan,
1,61822998,61833191,40,86973,45,
2175,2165,2176,2173,2178,2173,2174,2171,2173,2176,2181,2172,2176,2174,2177,2170,2176,2175,2174,2169,2171,2175,2179,2175,2170,2176,2176,2170,2175,2172,2173,2181,2174,2173,2179,2173,2175,2178,2172,2178,nan,nan,nan,nan,nan,
61824738,61824951,61825165,61825378,61825592,61825806,61826019,61826233,61826447,61826660,61826874,61827087,61827301,61827515,61827728,61827942,61828156,61828369,61828583,61828796,61829010,61829224,61829437,61829651,61829865,61830078,61830292,61830505,61830719,61830933,61831146,61831360,61831573,61831787,61832001,61832214,61832428,61832642,61832855,61833069,nan,nan,nan,nan,nan,
2,61840302,61850464,41,89273,45,
2176,2175,2177,2176,2177,2178,2177,2176,2179,2182,2173,2179,2178,2180,2177,2180,2182,2173,2181,2181,2177,2176,2179,2182,2181,2181,2178,2175,2170,2178,2178,2178,2171,2171,2178,2179,2179,2171,2179,2178,2177,nan,nan,nan,nan,
61841797,61842010,61842224,61842438,61842651,61842865,61843079,61843292,61843506,61843719,61843933,61844147,61844360,61844574,61844788,61845001,61845215,61845428,61845642,61845856,61846069,61846283,61846497,61846710,61846924,61847137,61847351,61847565,61847778,61847992,61848206,61848419,61848633,61848846,61849060,61849274,61849487,61849701,61849915,61850128,61850342,nan,nan,nan,nan,
3,61857635,61867798,40,86884,45,
2172,2172,2169,2175,2167,2171,2177,2176,2176,2172,2175,2169,2167,2167,2173,2170,2169,2174,2169,2174,2172,2168,2170,2175,2172,2172,2173,2173,2173,2173,2173,2179,2173,2174,2170,2168,2180,2170,2173,2169,nan,nan,nan,nan,nan,
61859314,61859558,61859772,61859985,61860199,61860413,61860626,61860840,61861053,61861267,61861481,61861694,61861908,61862122,61862335,61862549,61862762,61862976,61863190,61863403,61863617,61863831,61864044,61864258,61864471,61864685,61864899,61865112,61865326,61865540,61865753,61865967,61866180,61866394,61866608,61866821,61867035,61867249,61867462,61867676,nan,nan,nan,nan,nan,
0,61874908,61885071,41,89484,45,
2180,2179,2188,2184,2178,2185,2184,2183,2183,2185,2185,2181,2184,2173,2185,2182,2187,2178,2184,2187,2185,2183,2189,2184,2185,2181,2183,2184,2186,2177,2177,2178,2179,2178,2184,2184,2181,2184,2184,2182,2181,nan,nan,nan,nan,
61876373,61876617,61876831,61877045,61877258,61877472,61877686,61877899,61878113,61878326,61878540,61878754,61878967,61879181,61879395,61879608,61879822,61880035,61880249,61880463,61880676,61880890,61881104,61881317,61881531,61881744,61881958,61882172,61882385,61882599,61882813,61883026,61883240,61883453,61883667,61883881,61884094,61884308,61884521,61884735,61884949,nan,nan,nan,nan,
1,61892242,61902435,40,86984,45,
2179,2170,2176,2171,2175,2171,2173,2176,2173,2178,2176,2179,2170,2169,2174,2176,2181,2174,2176,2173,2182,2173,2172,2168,2178,2174,2177,2165,2174,2175,2173,2172,2175,2176,2176,2176,2175,2173,2181,2179,nan,nan,nan,nan,nan,
61893982,61894196,61894409,61894623,61894836,61895050,61895264,61895477,61895691,61895905,61896118,61896332,61896545,61896759,61896973,61897186,61897400,61897614,61897827,61898041,61898254,61898468,61898682,61898895,61899109,61899323,61899536,61899750,61899963,61900177,61900391,61900604,61900818,61901031,61901245,61901459,61901672,61901886,61902100,61902313,nan,nan,nan,nan,nan,
2,61909546,61919708,41,89262,45,
2168,2169,2179,2183,2175,2175,2180,2178,2181,2178,2176,2173,2176,2175,2170,2180,2180,2171,2177,2179,2171,2181,2178,2179,2173,2179,2178,2186,2176,2177,2177,2183,2178,2176,2172,2180,2174,2181,2178,2182,2180,nan,nan,nan,nan,
61911011,61911255,61911469,61911682,61911896,61912109,61912323,61912537,61912750,61912964,61913177,61913391,61913605,61913818,61914032,61914246,61914459,61914673,61914886,61915100,61915314,61915527,61915741,61915955,61916168,61916382,61916595,61916809,61917023,61917236,61917450,61917664,61917877,61918091,61918304,61918518,61918732,61918945,61919159,61919373,61919586,nan,nan,nan,nan,
3,61927124,61937225,41,89057,45,
2174,2172,2174,2174,2173,2170,2179,2174,2176,2169,2173,2169,2179,2178,2173,2169,2173,2173,2175,2174,2173,2170,2167,2173,2173,2167,2172,2170,2171,2170,2173,2170,2170,2173,2163,2171,2174,2165,2170,2178,2173,nan,nan,nan,nan,
61928558,61928772,61928986,61929199,61929413,61929626,61929840,61930054,61930267,61930481,61930695,61930908,61931122,61931335,61931549,61931763,61931976,61932190,61932404,61932617,61932831,61933044,61933258,61933472,61933685,61933899,61934113,61934326,61934540,61934753,61934967,61935181,61935394,61935608,61935822,61936035,61936249,61936462,61936676,61936890,61937103,nan,nan,nan,nan,
0,61944427,61954498,40,87287,45,
2180,2181,2182,2176,2183,2179,2187,2180,2183,2181,2182,2191,2187,2184,2179,2181,2184,2181,2181,2184,2174,2184,2183,2179,2180,2187,2186,2183,2181,2181,2181,2188,2181,2184,2181,2179,2181,2184,2183,2181,nan,nan,nan,nan,nan,
61946014,61946228,61946472,61946686,61946899,61947113,61947327,61947540,61947754,61947968,61948181,61948395,61948608,61948822,61949036,61949249,61949463,61949677,61949890,61950104,61950317,61950531,61950745,61950958,61951172,61951385,61951599,61951813,61952026,61952240,61952454,61952667,61952881,61953094,61953308,61953522,61953735,61953949,61954163,61954376,nan,nan,nan,nan,nan,
1,61961609,61971771,41,89104,45,
2174,2176,2172,2179,2172,2172,2175,2171,2175,2171,2167,2171,2173,2178,2173,2174,2173,2167,2167,2172,2167,2171,2167,2179,2178,2179,2181,2176,2171,2173,2176,2173,2174,2169,2176,2173,2176,2175,2173,2173,2172,nan,nan,nan,nan,
61963104,61963318,61963531,61963745,61963959,61964172,61964386,61964600,61964813,61965027,61965240,61965454,61965668,61965881,61966095,61966309,61966522,61966736,61966949,61967163,61967377,61967590,61967804,61968018,61968231,61968445,61968658,61968872,61969086,61969299,61969513,61969727,61969940,61970154,61970367,61970581,61970795,61971008,61971222,61971436,61971649,nan,nan,nan,nan,
2,61978943,61989105,40,87133,45,
2180,2178,2168,2175,2177,2179,2181,2181,2178,2182,2182,2182,2181,2179,2183,2182,2180,2175,2178,2177,2176,2172,2176,2181,2173,2178,2183,2179,2181,2178,2181,2182,2178,2176,2176,2173,2173,2182,2179,2178,nan,nan,nan,nan,nan,
61980621,61980865,61981079,61981293,61981506,61981720,61981934,61982147,61982361,61982574,61982788,61983002,61983215,61983429,61983643,61983856,61984070,61984283,61984497,61984711,61984924,61985138,61985352,61985565,61985779,61985992,61986206,61986420,61986633,61986847,61987061,61987274,61987488,61987701,61987915,61988129,61988342,61988556,61988770,61988983,nan,nan,nan,nan,nan,
3,61996216,62006409,41,89107,45,
2184,2180,2173,2178,2179,2170,2172,2167,2178,2171,2170,2173,2176,2178,2173,2173,2167,2170,2177,2173,2176,2179,2172,2172,2169,2171,2173,2169,2173,2168,2171,2170,2169,2173,2176,2173,2177,2176,2172,2173,2173,nan,nan,nan,nan,
61997742,61997955,61998169,61998383,61998596,61998810,61999023,61999237,61999451,61999664,61999878,62000092,62000305,62000519,62000732,62000946,62001160,62001373,62001587,62001801,62002014,62002228,62002441,62002655,62002869,62003082,62003296,62003510,62003723,62003937,62004150,62004364,62004578,62004791,62005005,62005219,62005432,62005646,62005859,62006073,62006287,nan,nan,nan,nan,
0,62013611,62023804,40,87260,45,
2182,2183,2182,2184,2183,2181,2179,2182,2181,2184,2184,2181,2184,2183,2183,2183,2178,2182,2181,2182,2181,2184,2178,2185,2173,2181,2181,2182,2178,2184,2178,2184,2180,2180,2184,2178,2179,2184,2183,2181,nan,nan,nan,nan,nan,
62015320,62015564,62015778,62015991,62016205,62016418,62016632,62016846,62017059,62017273,62017487,62017700,62017914,62018127,62018341,62018555,62018768,62018982,62019196,62019409,62019623,62019836,62020050,62020264,62020477,62020691,62020905,62021118,62021332,62021545,62021759,62021973,62022186,62022400,62022614,62022827,62023041,62023254,62023468,62023682,nan,nan,nan,nan,nan,
1,62030914,62041077,41,89187,45,
2167,2176,2170,2174,2180,2173,2179,2175,2175,2175,2175,2176,2176,2179,2173,2176,2176,2177,2177,2181,2173,2176,2174,2179,2176,2170,2173,2179,2178,2177,2176,2179,2179,2173,2173,2174,2176,2173,2170,2170,2179,nan,nan,nan,nan,
62032379,62032623,62032837,62033051,62033264,62033478,62033691,62033905,62034119,62034332,62034546,62034760,62034973,62035187,62035400,62035614,62035828,62036041,62036255,62036469,62036682,62036896,62037109,62037323,62037537,62037750,62037964,62038177,62038391,62038605,62038818,62039032,62039246,62039459,62039673,62039886,62040100,62040314,62040527,62040741,62040955,nan,nan,nan,nan,
2,62048279,62058441,40,87104,45,
2163,2175,2178,2174,2174,2182,2177,2179,2176,2178,2177,2178,2185,2179,2178,2181,2176,2176,2174,2173,2179,2181,2178,2171,2174,2173,2186,2176,2178,2178,2179,2175,2181,2180,2178,2179,2182,2180,2185,2178,nan,nan,nan,nan,nan,
62049988,62050201,62050415,62050629,62050842,62051056,62051270,62051483,62051697,62051910,62052124,62052338,62052551,62052765,62052979,62053192,62053406,62053619,62053833,62054047,62054260,62054474,62054688,62054901,62055115,62055328,62055542,62055756,62055969,62056183,62056396,62056610,62056824,62057037,62057251,62057465,62057678,62057892,62058105,62058319,nan,nan,nan,nan,nan,
3,62065552,62075714,41,89127,45,
2177,2176,2175,2171,2170,2179,2176,2173,2172,2181,2178,2172,2174,2173,2176,2178,2173,2173,2173,2176,2178,2178,2176,2174,2173,2173,2173,2176,2170,2173,2170,2168,2169,2173,2171,2173,2172,2173,2170,2173,2175,nan,nan,nan,nan,
62067017,62067261,62067474,62067688,62067902,62068115,62068329,62068542,62068756,62068970,62069183,62069397,62069611,62069824,62070038,62070251,62070465,62070679,62070892,62071106,62071320,62071533,62071747,62071960,62072174,62072388,62072601,62072815,62073029,62073242,62073456,62073669,62073883,62074097,62074310,62074524,62074738,62074951,62075165,62075378,62075592,nan,nan,nan,nan,
0,62082916,62093079,40,87283,45,
2184,2180,2184,2185,2184,2184,2181,2183,2180,2185,2178,2182,2182,2174,2184,2181,2184,2184,2185,2181,2181,2180,2183,2185,2177,2176,2186,2186,2181,2184,2191,2181,2184,2183,2178,2180,2184,2181,2184,2173,nan,nan,nan,nan,nan,
62084595,62084839,62085052,62085266,62085480,62085693,62085907,62086121,62086334,62086548,62086761,62086975,62087189,62087402,62087616,62087830,62088043,62088257,62088470,62088684,62088898,62089111,62089325,62089539,62089752,62089966,62090179,62090393,62090607,62090820,62091034,62091248,62091461,62091675,62091888,62092102,62092316,62092529,62092743,62092957,nan,nan,nan,nan,nan,
1,62100189,62110199,40,86990,45,
2167,2172,2176,2168,2172,2173,2173,2170,2179,2179,2179,2173,2176,2176,2172,2181,2171,2174,2178,2174,2174,2173,2173,2172,2172,2176,2176,2173,2173,2179,2173,2177,2177,2179,2178,2180,2176,2186,2167,2173,nan,nan,nan,nan,nan,
62101715,62101959,62102173,62102386,62102600,62102814,62103027,62103241,62103455,62103668,62103882,62104095,62104309,62104523,62104736,62104950,62105164,62105377,62105591,62105804,62106018,62106232,62106445,62106659,62106873,62107086,62107300,62107513,62107727,62107941,62108154,62108368,62108582,62108795,62109009,62109222,62109436,62109650,62109863,62110077,nan,nan,nan,nan,nan,
2,62117310,62127441,41,89285,45,
2170,2173,2177,2178,2179,2182,2178,2177,2176,2181,2175,2179,2179,2178,2182,2176,2178,2180,2182,2181,2174,2178,2178,2180,2177,2170,2179,2173,2182,2182,2176,2181,2178,2178,2182,2174,2181,2173,2177,2180,2171,nan,nan,nan,nan,
62118774,62118988,62119202,62119415,62119629,62119843,62120056,62120270,62120483,62120697,62120911,62121124,62121338,62121552,62121765,62121979,62122192,62122406,62122620,62122833,62123047,62123260,62123474,62123688,62123901,62124115,62124329,62124542,62124756,62124969,62125183,62125397,62125610,62125824,62126038,62126251,62126465,62126678,62126892,62127106,62127319,nan,nan,nan,nan,
3,62134644,62144806,40,86938,45,
2179,2173,2180,2171,2173,2173,2173,2173,2176,2173,2173,2176,2172,2170,2172,2169,2171,2169,2173,2175,2173,2173,2171,2172,2173,2170,2173,2173,2175,2179,2179,2172,2173,2178,2173,2171,2173,2176,2173,2174,nan,nan,nan,nan,nan,
62136322,62136566,62136780,62136993,62137207,62137421,62137634,62137848,62138062,62138275,62138489,62138702,62138916,62139130,62139343,62139557,62139771,62139984,62140198,62140411,62140625,62140839,62141052,62141266,62141479,62141693,62141907,62142120,62142334,62142548,62142761,62142975,62143188,62143402,62143616,62143829,62144043,62144257,62144470,62144684,nan,nan,nan,nan,nan,
0,62151917,62162079,41,89446,45,
2178,2174,2178,2179,2183,2179,2180,2174,2180,2184,2184,2181,2183,2181,2187,2184,2181,2184,2184,2184,2182,2183,2185,2178,2182,2180,2186,2185,2176,2181,2182,2184,2184,2184,2180,2188,2184,2184,2182,2173,2181,nan,nan,nan,nan,
62153381,62153625,62153839,62154053,62154266,62154480,62154694,62154907,62155121,62155334,62155548,62155762,62155975,62156189,62156403,62156616,62156830,62157043,62157257,62157471,62157684,62157898,62158112,62158325,62158539,62158752,62158966,62159180,62159393,62159607,62159821,62160034,62160248,62160461,62160675,62160889,62161102,62161316,62161530,62161743,62161957,nan,nan,nan,nan,
1,62169281,62179443,40,86982,45,
2174,2173,2168,2171,2174,2174,2172,2170,2171,2178,2171,2174,2171,2167,2173,2177,2171,2173,2179,2168,2173,2177,2183,2180,2177,2173,2179,2178,2176,2179,2178,2177,2170,2176,2174,2171,2177,2176,2178,2181,nan,nan,nan,nan,nan,
62170990,62171204,62171417,62171631,62171844,62172058,62172272,62172485,62172699,62172913,62173126,62173340,62173553,62173767,62173981,62174194,62174408,62174622,62174835,62175049,62175262,62175476,62175690,62175903,62176117,62176331,62176544,62176758,62176971,62177185,62177399,62177612,62177826,62178040,62178253,62178467,62178680,62178894,62179108,62179321,nan,nan,nan,nan,nan,
2,62186554,62196686,41,89291,45,
2180,2176,2173,2179,2177,2175,2172,2179,2179,2181,2176,2182,2183,2177,2181,2179,2180,2173,2178,2178,2178,2173,2179,2181,2178,2180,2178,2178,2176,2179,2181,2175,2177,2176,2178,2176,2177,2183,2176,2176,2178,nan,nan,nan,nan,
62188019,62188232,62188446,62188660,62188873,62189087,62189301,62189514,62189728,62189941,62190155,62190369,62190582,62190796,62191010,62191223,62191437,62191650,62191864,62192078,62192291,62192505,62192719,62192932,62193146,62193359,62193573,62193787,62194000,62194214,62194427,62194641,62194855,62195068,62195282,62195496,62195709,62195923,62196136,62196350,62196564,nan,nan,nan,nan,
3,62203888,62214050,40,86877,45,
2175,2172,2170,2170,2172,2170,2175,2173,2172,2174,2173,2177,2179,2173,2171,2169,2167,2178,2168,2174,2176,2173,2167,2171,2170,2170,2173,2173,2174,2173,2169,2171,2170,2172,2167,2168,2169,2171,2169,2179,nan,nan,nan,nan,nan,
62205597,62205811,62206024,62206238,62206451,62206665,62206879,62207092,62207306,62207520,62207733,62207947,62208160,62208374,62208588,62208801,62209015,62209229,62209442,62209656,62209869,62210083,62210297,62210510,62210724,62210938,62211151,62211365,62211578,62211792,62212006,62212219,62212433,62212646,62212860,62213074,62213287,62213501,62213715,62213928,nan,nan,nan,nan,nan,
0,62221161,62231293,41,89473,45,
2179,2181,2183,2173,2181,2179,2181,2180,2184,2184,2181,2182,2182,2181,2182,2183,2186,2184,2182,2182,2183,2178,2184,2184,2181,2184,2184,2182,2186,2185,2184,2181,2182,2181,2184,2183,2181,2185,2185,2187,2179,nan,nan,nan,nan,
62222626,62222839,62223053,62223267,62223480,62223694,62223907,62224121,62224335,62224548,62224762,62224976,62225189,62225403,62225616,62225830,62226044,62226257,62226471,62226685,62226898,62227112,62227325,62227539,62227753,62227966,62228180,62228394,62228607,62228821,62229034,62229248,62229462,62229675,62229889,62230103,62230316,62230530,62230743,62230957,62231171,nan,nan,nan,nan,
1,62238495,62248688,40,87006,45,
2172,2179,2177,2173,2181,2172,2171,2179,2169,2175,2179,2172,2173,2173,2178,2171,2174,2173,2168,2173,2173,2173,2179,2181,2176,2176,2177,2174,2182,2183,2178,2173,2173,2175,2173,2177,2174,2171,2179,2177,nan,nan,nan,nan,nan,
62240234,62240448,62240662,62240875,62241089,62241302,62241516,62241730,62241943,62242157,62242371,62242584,62242798,62243011,62243225,62243439,62243652,62243866,62244080,62244293,62244507,62244720,62244934,62245148,62245361,62245575,62245789,62246002,62246216,62246429,62246643,62246857,62247070,62247284,62247498,62247711,62247925,62248138,62248352,62248566,nan,nan,nan,nan,nan,
2,62255798,62265961,41,89293,45,
2170,2176,2174,2176,2176,2173,2174,2181,2176,2179,2176,2181,2181,2180,2177,2181,2179,2179,2178,2173,2179,2174,2180,2179,2180,2181,2178,2179,2178,2179,2182,2175,2182,2179,2181,2175,2175,2179,2174,2188,2176,nan,nan,nan,nan,
62257263,62257507,62257721,62257935,62258148,62258362,62258575,62258789,62259003,62259216,62259430,62259644,62259857,62260071,62260284,62260498,62260712,62260925,62261139,62261353,62261566,62261780,62261993,62262207,62262421,62262634,62262848,62263062,62263275,62263489,62263702,62263916,62264130,62264343,62264557,62264771,62264984,62265198,62265411,62265625,62265839,nan,nan,nan,nan,
3,62273163,62283325,40,86903,45,
2172,2177,2173,2167,2176,2173,2173,2175,2175,2175,2176,2173,2170,2171,2173,2176,2167,2174,2173,2173,2168,2173,2172,2169,2170,2167,2173,2170,2171,2176,2173,2172,2172,2172,2176,2176,2173,2172,2176,2170,nan,nan,nan,nan,nan,
62274841,62275085,62275299,62275513,62275726,62275940,62276154,62276367,62276581,62276794,62277008,62277222,62277435,62277649,62277863,62278076,62278290,62278503,62278717,62278931,62279144,62279358,62279572,62279785,62279999,62280212,62280426,62280640,62280853,62281067,62281281,62281494,62281708,62281921,62282135,62282349,62282562,62282776,62282990,62283203,nan,nan,nan,nan,nan,
0,62290436,62300446,40,87256,45,
2184,2184,2177,2182,2180,2176,2184,2175,2181,2186,2181,2182,2178,2187,2183,2181,2184,2184,2184,2182,2181,2184,2178,2187,2178,2178,2187,2182,2174,2174,2178,2187,2178,2182,2183,2182,2183,2180,2182,2183,nan,nan,nan,nan,nan,
62291962,62292206,62292419,62292633,62292847,62293060,62293274,62293488,62293701,62293915,62294128,62294342,62294556,62294769,62294983,62295197,62295410,62295624,62295837,62296051,62296265,62296478,62296692,62296906,62297119,62297333,62297546,62297760,62297974,62298187,62298401,62298615,62298828,62299042,62299255,62299469,62299683,62299896,62300110,62300323,nan,nan,nan,nan,nan,
1,62307556,62317719,41,89215,45,
2172,2173,2173,2176,2168,2179,2179,2178,2180,2173,2178,2174,2173,2175,2182,2181,2174,2182,2173,2180,2172,2171,2179,2173,2178,2179,2179,2176,2175,2167,2179,2176,2176,2178,2178,2177,2174,2181,2178,2173,2173,nan,nan,nan,nan,
62309021,62309265,62309479,62309692,62309906,62310120,62310333,62310547,62310760,62310974,62311188,62311401,62311615,62311829,62312042,62312256,62312469,62312683,62312897,62313110,62313324,62313538,62313751,62313965,62314178,62314392,62314606,62314819,62315033,62315247,62315460,62315674,62315887,62316101,62316315,62316528,62316742,62316956,62317169,62317383,62317596,nan,nan,nan,nan,
2,62325134,62335236,41,89254,45,
2174,2179,2182,2178,2174,2174,2175,2173,2173,2179,2180,2177,2177,2176,2177,2178,2179,2178,2173,2180,2170,2180,2179,2185,2179,2175,2180,2173,2181,2179,2175,2178,2181,2176,2173,2173,2174,2177,2173,2179,2178,nan,nan,nan,nan,
62326569,62326782,62326996,62327209,62327423,62327637,62327850,62328064,62328278,62328491,62328705,62328918,62329132,62329346,62329559,62329773,62329987,62330200,62330414,62330627,62330841,62331055,62331268,62331482,62331696,62331909,62332123,62332336,62332550,62332764,62332977,62333191,62333405,62333618,62333832,62334045,62334259,62334473,62334686,62334900,62335114,nan,nan,nan,nan,
3,62342438,62352570,40,86905,45,
2178,2179,2173,2168,2170,2175,2170,2172,2176,2173,2171,2170,2174,2168,2173,2173,2174,2172,2171,2171,2173,2170,2174,2175,2173,2173,2173,2173,2170,2173,2184,2171,2175,2174,2170,2173,2172,2173,2168,2167,nan,nan,nan,nan,nan,
62344116,62344330,62344543,62344757,62344971,62345184,62345398,62345612,62345825,62346039,62346252,62346466,62346680,62346893,62347107,62347321,62347534,62347748,62347961,62348175,62348389,62348602,62348816,62349030,62349243,62349457,62349670,62349884,62350098,62350311,62350525,62350739,62350952,62351166,62351379,62351593,62351807,62352020,62352234,62352448,nan,nan,nan,nan,nan,
0,62359680,62369751,41,89505,45,
2177,2184,2180,2182,2178,2182,2184,2186,2181,2186,2189,2183,2186,2181,2182,2179,2183,2184,2188,2183,2188,2182,2188,2184,2181,2182,2181,2178,2187,2186,2178,2182,2186,2183,2181,2188,2183,2178,2184,2183,2184,nan,nan,nan,nan,
62361053,62361298,62361511,62361725,62361938,62362152,62362366,62362579,62362793,62363007,62363220,62363434,62363647,62363861,62364075,62364288,62364502,62364716,62364929,62365143,62365356,62365570,62365784,62365997,62366211,62366425,62366638,62366852,62367065,62367279,62367493,62367706,62367920,62368134,62368347,62368561,62368774,62368988,62369202,62369415,62369629,nan,nan,nan,nan,
1,62376953,62387085,40,86952,45,
2176,2177,2167,2177,2170,2173,2175,2173,2173,2180,2177,2179,2174,2176,2176,2172,2174,2175,2174,2176,2173,2173,2176,2171,2175,2171,2173,2173,2173,2176,2173,2174,2167,2179,2171,2173,2173,2165,2173,2176,nan,nan,nan,nan,nan,
62378601,62378845,62379059,62379272,62379486,62379700,62379913,62380127,62380341,62380554,62380768,62380981,62381195,62381409,62381622,62381836,62382050,62382263,62382477,62382690,62382904,62383118,62383331,62383545,62383759,62383972,62384186,62384399,62384613,62384827,62385040,62385254,62385468,62385681,62385895,62386108,62386322,62386536,62386749,62386963,nan,nan,nan,nan,nan,
2,62394196,62404205,40,87097,45,
2175,2177,2171,2178,2176,2179,2182,2183,2180,2178,2180,2175,2174,2173,2179,2178,2173,2179,2180,2178,2178,2180,2173,2182,2180,2173,2181,2173,2178,2175,2173,2179,2177,2176,2171,2182,2173,2182,2179,2184,nan,nan,nan,nan,nan,
62395721,62395966,62396179,62396393,62396606,62396820,62397034,62397247,62397461,62397675,62397888,62398102,62398315,62398529,62398743,62398956,62399170,62399384,62399597,62399811,62400024,62400238,62400452,62400665,62400879,62401093,62401306,62401520,62401733,62401947,62402161,62402374,62402588,62402802,62403015,62403229,62403442,62403656,62403870,62404083,nan,nan,nan,nan,nan,
3,62411316,62421448,41,89078,45,
2178,2176,2173,2186,2176,2170,2168,2170,2174,2173,2173,2178,2173,2173,2173,2172,2175,2168,2172,2172,2173,2171,2169,2175,2170,2173,2172,2176,2176,2167,2177,2173,2167,2173,2171,2173,2169,2167,2173,2170,2170,nan,nan,nan,nan,
62412750,62412994,62413208,62413422,62413635,62413849,62414063,62414276,62414490,62414703,62414917,62415131,62415344,62415558,62415771,62415985,62416199,62416412,62416626,62416840,62417053,62417267,62417480,62417694,62417908,62418121,62418335,62418549,62418762,62418976,62419189,62419403,62419617,62419830,62420044,62420258,62420471,62420685,62420898,62421112,62421326,nan,nan,nan,nan,
0,62428864,62438965,41,89426,45,
2179,2184,2182,2183,2180,2178,2180,2177,2187,2178,2186,2187,2178,2181,2187,2184,2183,2181,2173,2184,2184,2181,2178,2176,2181,2173,2180,2181,2177,2180,2184,2182,2184,2180,2184,2183,2182,2178,2181,2185,2180,nan,nan,nan,nan,
62430298,62430511,62430725,62430939,62431152,62431366,62431580,62431793,62432007,62432220,62432434,62432648,62432861,62433075,62433289,62433502,62433716,62433929,62434143,62434357,62434570,62434784,62434998,62435211,62435425,62435638,62435852,62436066,62436279,62436493,62436707,62436920,62437134,62437347,62437561,62437775,62437988,62438202,62438416,62438629,62438843,nan,nan,nan,nan,
1,62446167,62456329,40,86976,45,
2173,2175,2181,2173,2178,2173,2178,2176,2176,2176,2173,2170,2173,2172,2170,2175,2179,2173,2173,2173,2173,2174,2176,2176,2177,2174,2181,2175,2169,2179,2173,2171,2169,2174,2176,2170,2175,2180,2169,2175,nan,nan,nan,nan,nan,
62447845,62448090,62448303,62448517,62448730,62448944,62449158,62449371,62449585,62449799,62450012,62450226,62450439,62450653,62450867,62451080,62451294,62451508,62451721,62451935,62452148,62452362,62452576,62452789,62453003,62453217,62453430,62453644,62453857,62454071,62454285,62454498,62454712,62454926,62455139,62455353,62455566,62455780,62455994,62456207,nan,nan,nan,nan,nan,
2,62463440,62473450,40,87093,45,
2170,2181,2178,2180,2173,2180,2178,2182,2176,2174,2176,2172,2178,2174,2178,2176,2181,2176,2173,2179,2180,2173,2173,2183,2184,2179,2178,2182,2176,2174,2176,2178,2177,2173,2186,2177,2176,2176,2178,2179,nan,nan,nan,nan,nan,
62464966,62465210,62465424,62465637,62465851,62466064,62466278,62466492,62466705,62466919,62467133,62467346,62467560,62467773,62467987,62468201,62468414,62468628,62468842,62469055,62469269,62469482,62469696,62469910,62470123,62470337,62470551,62470764,62470978,62471191,62471405,62471619,62471832,62472046,62472260,62472473,62472687,62472900,62473114,62473328,nan,nan,nan,nan,nan,
3,62480560,62490723,41,89039,45,
2180,2170,2173,2175,2180,2168,2171,2166,2170,2170,2172,2175,2173,2167,2171,2170,2169,2169,2169,2175,2165,2175,2174,2170,2176,2173,2169,2173,2171,2174,2173,2176,2169,2167,2174,2170,2168,2169,2175,2173,2172,nan,nan,nan,nan,
62482025,62482269,62482483,62482697,62482910,62483124,62483337,62483551,62483765,62483978,62484192,62484406,62484619,62484833,62485046,62485260,62485474,62485687,62485901,62486115,62486328,62486542,62486755,62486969,62487183,62487396,62487610,62487823,62488037,62488251,62488464,62488678,62488892,62489105,62489319,62489532,62489746,62489960,62490173,62490387,62490601,nan,nan,nan,nan,
0,62497925,62508087,40,87190,45,
2181,2184,2183,2182,2181,2181,2182,2182,2181,2176,2178,2179,2178,2181,2173,2181,2183,2184,2182,2183,2178,2184,2179,2180,2183,2178,2178,2179,2179,2179,2175,2174,2180,2176,2184,2180,2176,2176,2181,2176,nan,nan,nan,nan,nan,
62499603,62499847,62500061,62500275,62500488,62500702,62500916,62501129,62501343,62501556,62501770,62501984,62502197,62502411,62502625,62502838,62503052,62503265,62503479,62503693,62503906,62504120,62504333,62504547,62504761,62504974,62505188,62505402,62505615,62505829,62506042,62506256,62506470,62506683,62506897,62507111,62507324,62507538,62507751,62507965,nan,nan,nan,nan,nan,
1,62515198,62525208,40,86906,45,
2171,2173,2175,2179,2170,2172,2172,2171,2167,2174,2170,2173,2173,2173,2173,2176,2172,2170,2173,2169,2168,2175,2176,2173,2173,2173,2174,2179,2172,2178,2171,2176,2167,2173,2173,2171,2173,2168,2171,2176,nan,nan,nan,nan,nan,
62516724,62516968,62517181,62517395,62517609,62517822,62518036,62518250,62518463,62518677,62518890,62519104,62519318,62519531,62519745,62519958,62520172,62520386,62520599,62520813,62521027,62521240,62521454,62521667,62521881,62522095,62522308,62522522,62522736,62522949,62523163,62523376,62523590,62523804,62524017,62524231,62524445,62524658,62524872,62525085,nan,nan,nan,nan,nan,
2,62532318,62542450,41,89208,45,
2171,2179,2170,2176,2178,2176,2170,2182,2172,2177,2176,2173,2176,2179,2181,2176,2173,2172,2173,2175,2178,2176,2176,2177,2173,2180,2175,2173,2179,2176,2177,2172,2178,2176,2179,2172,2178,2180,2173,2176,2179,nan,nan,nan,nan,
62533752,62533997,62534210,62534424,62534637,62534851,62535065,62535278,62535492,62535706,62535919,62536133,62536346,62536560,62536774,62536987,62537201,62537415,62537628,62537842,62538055,62538269,62538483,62538696,62538910,62539124,62539337,62539551,62539764,62539978,62540192,62540405,62540619,62540833,62541046,62541260,62541473,62541687,62541901,62542114,62542328,nan,nan,nan,nan,
3,62549866,62559998,41,89065,45,
2176,2178,2172,2172,2176,2173,2173,2170,2172,2171,2173,2173,2179,2171,2173,2170,2173,2168,2176,2176,2171,2171,2167,2172,2173,2170,2174,2167,2172,2179,2170,2172,2172,2173,2173,2171,2171,2168,2173,2167,2174,nan,nan,nan,nan,
62551331,62551544,62551758,62551971,62552185,62552399,62552612,62552826,62553040,62553253,62553467,62553680,62553894,62554108,62554321,62554535,62554749,62554962,62555176,62555389,62555603,62555817,62556030,62556244,62556458,62556671,62556885,62557098,62557312,62557526,62557739,62557953,62558167,62558380,62558594,62558807,62559021,62559235,62559448,62559662,62559875,nan,nan,nan,nan,
0,62567200,62577362,40,87264,45,
2178,2185,2182,2180,2184,2188,2181,2184,2181,2176,2178,2180,2179,2184,2186,2182,2182,2182,2177,2184,2179,2180,2183,2185,2182,2180,2185,2178,2181,2181,2185,2184,2187,2178,2178,2180,2180,2181,2180,2184,nan,nan,nan,nan,nan,
62568909,62569122,62569336,62569550,62569763,62569977,62570190,62570404,62570618,62570831,62571045,62571259,62571472,62571686,62571899,62572113,62572327,62572540,62572754,62572968,62573181,62573395,62573608,62573822,62574036,62574249,62574463,62574677,62574890,62575104,62575317,62575531,62575745,62575958,62576172,62576385,62576599,62576813,62577026,62577240,nan,nan,nan,nan,nan,
1,62584473,62594666,41,89131,45,
2168,2168,2176,2173,2177,2173,2175,2172,2170,2176,2170,2175,2173,2171,2174,2173,2173,2176,2170,2171,2173,2179,2171,2172,2174,2173,2168,2177,2170,2173,2170,2178,2176,2179,2177,2181,2176,2176,2181,2174,2179,nan,nan,nan,nan,
62585968,62586212,62586426,62586639,62586853,62587067,62587280,62587494,62587708,62587921,62588135,62588348,62588562,62588776,62588989,62589203,62589417,62589630,62589844,62590057,62590271,62590485,62590698,62590912,62591125,62591339,62591553,62591766,62591980,62592194,62592407,62592621,62592834,62593048,62593262,62593475,62593689,62593903,62594116,62594330,62594543,nan,nan,nan,nan,
2,62601868,62612000,40,87085,45,
2173,2177,2176,2179,2173,2179,2177,2181,2182,2171,2173,2180,2176,2176,2176,2170,2174,2173,2173,2181,2179,2178,2176,2182,2178,2182,2182,2180,2179,2178,2179,2173,2178,2174,2176,2176,2181,2176,2179,2179,nan,nan,nan,nan,nan,
62603546,62603760,62603973,62604187,62604401,62604614,62604828,62605042,62605255,62605469,62605682,62605896,62606110,62606323,62606537,62606750,62606964,62607178,62607391,62607605,62607819,62608032,62608246,62608459,62608673,62608887,62609100,62609314,62609528,62609741,62609955,62610168,62610382,62610596,62610809,62611023,62611237,62611450,62611664,62611877,nan,nan,nan,nan,nan,
3,62619110,62629272,41,89060,45,
2173,2179,2174,2173,2166,2171,2173,2167,2178,2178,2167,2172,2173,2172,2174,2168,2171,2178,2172,2172,2173,2171,2168,2174,2178,2170,2179,2173,2173,2173,2165,2170,2175,2165,2172,2170,2174,2170,2173,2173,2170,nan,nan,nan,nan,
62620575,62620819,62621033,62621246,62621460,62621674,62621887,62622101,62622314,62622528,62622742,62622955,62623169,62623383,62623596,62623810,62624023,62624237,62624451,62624664,62624878,62625092,62625305,62625519,62625732,62625946,62626160,62626373,62626587,62626801,62627014,62627228,62627441,62627655,62627869,62628082,62628296,62628510,62628723,62628937,62629150,nan,nan,nan,nan,
0,62636475,62646637,40,87276,45,
2182,2182,2184,2182,2183,2187,2181,2181,2180,2179,2176,2184,2189,2186,2176,2178,2177,2180,2185,2184,2182,2182,2181,2183,2183,2184,2181,2185,2180,2178,2184,2191,2175,2181,2180,2185,2179,2184,2184,2178,nan,nan,nan,nan,nan,
62638153,62638397,62638611,62638824,62639038,62639252,62639465,62639679,62639893,62640106,62640320,62640533,62640747,62640961,62641174,62641388,62641602,62641815,62642029,62642242,62642456,62642670,62642883,62643097,62643311,62643524,62643738,62643951,62644165,62644379,62644592,62644806,62645020,62645233,62645447,62645660,62645874,62646088,62646301,62646515,nan,nan,nan,nan,nan,
1,62653748,62663940,41,89103,45,
2171,2174,2170,2180,2173,2175,2172,2173,2173,2173,2173,2172,2173,2171,2179,2173,2173,2173,2182,2168,2173,2173,2174,2180,2173,2172,2169,2171,2176,2173,2176,2170,2173,2179,2171,2173,2168,2174,2170,2171,2173,nan,nan,nan,nan,
62655243,62655487,62655701,62655914,62656128,62656342,62656555,62656769,62656982,62657196,62657410,62657623,62657837,62658051,62658264,62658478,62658691,62658905,62659119,62659332,62659546,62659760,62659973,62660187,62660400,62660614,62660828,62661041,62661255,62661469,62661682,62661896,62662109,62662323,62662537,62662750,62662964,62663177,62663391,62663605,62663818,nan,nan,nan,nan,
2,62671112,62681274,40,87088,45,
2173,2177,2167,2173,2172,2182,2177,2178,2179,2179,2174,2174,2176,2178,2177,2179,2182,2181,2176,2184,2180,2181,2181,2179,2181,2181,2178,2179,2173,2173,2183,2173,2179,2173,2181,2173,2170,2178,2177,2177,nan,nan,nan,nan,nan,
62672791,62673035,62673248,62673462,62673676,62673889,62674103,62674316,62674530,62674744,62674957,62675171,62675385,62675598,62675812,62676025,62676239,62676453,62676666,62676880,62677094,62677307,62677521,62677734,62677948,62678162,62678375,62678589,62678802,62679016,62679230,62679443,62679657,62679871,62680084,62680298,62680511,62680725,62680939,62681152,nan,nan,nan,nan,nan,
3,62688385,62698547,41,89045,45,
2176,2173,2171,2173,2172,2172,2171,2180,2172,2172,2172,2171,2170,2173,2170,2173,2167,2174,2167,2170,2172,2174,2174,2174,2165,2171,2170,2173,2170,2176,2179,2173,2170,2182,2167,2172,2168,2167,2170,2174,2165,nan,nan,nan,nan,
62689850,62690094,62690308,62690521,62690735,62690948,62691162,62691376,62691589,62691803,62692017,62692230,62692444,62692657,62692871,62693085,62693298,62693512,62693726,62693939,62694153,62694366,62694580,62694794,62695007,62695221,62695435,62695648,62695862,62696075,62696289,62696503,62696716,62696930,62697144,62697357,62697571,62697784,62697998,62698212,62698425,nan,nan,nan,nan,
0,62705719,62715759,40,87307,45,
2177,2180,2180,2182,2181,2184,2186,2182,2187,2187,2184,2181,2183,2181,2182,2183,2182,2176,2186,2181,2183,2187,2181,2184,2185,2181,2184,2179,2184,2184,2184,2184,2184,2184,2176,2183,2186,2186,2182,2181,nan,nan,nan,nan,nan,
62707062,62707489,62707733,62707947,62708160,62708374,62708588,62708801,62709015,62709229,62709442,62709656,62709869,62710083,62710297,62710510,62710724,62710938,62711151,62711365,62711578,62711792,62712006,62712219,62712433,62712646,62712860,62713074,62713287,62713501,62713715,62713928,62714142,62714355,62714569,62714783,62714996,62715210,62715424,62715637,nan,nan,nan,nan,nan,
1,62722870,62733002,41,89100,45,
2173,2179,2177,2177,2176,2176,2173,2174,2176,2179,2181,2170,2173,2173,2171,2176,2172,2173,2170,2173,2176,2171,2171,2173,2174,2173,2176,2172,2170,2167,2175,2171,2170,2169,2167,2173,2171,2173,2170,2173,2173,nan,nan,nan,nan,
62724335,62724548,62724762,62724976,62725189,62725403,62725616,62725830,62726044,62726257,62726471,62726685,62726898,62727112,62727325,62727539,62727753,62727966,62728180,62728394,62728607,62728821,62729034,62729248,62729462,62729675,62729889,62730103,62730316,62730530,62730743,62730957,62731171,62731384,62731598,62731812,62732025,62732239,62732452,62732666,62732880,nan,nan,nan,nan,
2,62740204,62750366,40,86861,45,
2170,2164,2170,2171,2175,2171,2172,2170,2176,2176,2173,2171,2173,2173,2171,2167,2178,2171,2164,2172,2173,2167,2175,2173,2173,2171,2170,2173,2172,2179,2169,2173,2173,2170,2169,2170,2172,2171,2170,2170,nan,nan,nan,nan,nan,
62741913,62742126,62742340,62742554,62742767,62742981,62743195,62743408,62743622,62743835,62744049,62744263,62744476,62744690,62744904,62745117,62745331,62745544,62745758,62745972,62746185,62746399,62746613,62746826,62747040,62747253,62747467,62747681,62747894,62748108,62748322,62748535,62748749,62748962,62749176,62749390,62749603,62749817,62750031,62750244,nan,nan,nan,nan,nan,
3,62757477,62767670,41,88496,45,
2163,2165,2165,2161,2164,2159,2161,2155,2159,2154,2162,2156,2155,2154,2161,2155,2155,2163,2160,2155,2159,2163,2155,2159,2155,2159,2154,2165,2159,2156,2163,2155,2158,2152,2154,2158,2157,2155,2159,2162,2157,nan,nan,nan,nan,
62759003,62759216,62759430,62759644,62759857,62760071,62760284,62760498,62760712,62760925,62761139,62761353,62761566,62761780,62761993,62762207,62762421,62762634,62762848,62763062,62763275,62763489,62763702,62763916,62764130,62764343,62764557,62764771,62764984,62765198,62765411,62765625,62765839,62766052,62766266,62766479,62766693,62766907,62767120,62767334,62767548,nan,nan,nan,nan,
0,62774872,62785004,40,88177,45,
2196,2197,2205,2196,2202,2199,2203,2206,2203,2204,2203,2203,2198,2206,2207,2206,2208,2211,2208,2203,2210,2210,2205,2205,2206,2203,2204,2207,2208,2209,2204,2196,2203,2206,2205,2208,2206,2206,2202,2210,nan,nan,nan,nan,nan,
62776550,62776764,62776978,62777191,62777405,62777618,62777832,62778046,62778259,62778473,62778687,62778900,62779114,62779327,62779541,62779755,62779968,62780182,62780396,62780609,62780823,62781036,62781250,62781464,62781677,62781891,62782104,62782318,62782532,62782745,62782959,62783173,62783386,62783600,62783813,62784027,62784241,62784454,62784668,62784882,nan,nan,nan,nan,nan,
1,62792114,62802277,41,88741,45,
2170,2167,2165,2155,2165,2165,2162,2162,2165,2159,2165,2167,2166,2163,2164,2164,2167,2169,2167,2169,2159,2167,2170,2162,2166,2169,2161,2168,2165,2162,2165,2161,2155,2164,2161,2164,2165,2164,2169,2161,2167,nan,nan,nan,nan,
62793579,62793823,62794037,62794250,62794464,62794678,62794891,62795105,62795319,62795532,62795746,62795959,62796173,62796387,62796600,62796814,62797028,62797241,62797455,62797668,62797882,62798096,62798309,62798523,62798737,62798950,62799164,62799377,62799591,62799805,62800018,62800232,62800446,62800659,62800873,62801086,62801300,62801514,62801727,62801941,62802155,nan,nan,nan,nan,
2,62809479,62819641,40,86149,45,
2152,2149,2152,2155,2158,2161,2155,2154,2159,2154,2149,2155,2155,2151,2157,2155,2154,2159,2152,2156,2152,2151,2155,2154,2152,2155,2159,2156,2152,2149,2154,2151,2151,2153,2156,2154,2154,2152,2148,2149,nan,nan,nan,nan,nan,
62811157,62811401,62811615,62811829,62812042,62812256,62812469,62812683,62812897,62813110,62813324,62813538,62813751,62813965,62814178,62814392,62814606,62814819,62815033,62815247,62815460,62815674,62815887,62816101,62816315,62816528,62816742,62816956,62817169,62817383,62817596,62817810,62818024,62818237,62818451,62818665,62818878,62819092,62819305,62819519,nan,nan,nan,nan,nan,
3,62826752,62836945,41,87123,45,
2128,2132,2135,2125,2126,2129,2133,2130,2132,2128,2125,2124,2124,2123,2126,2123,2124,2126,2125,2126,2124,2124,2120,2118,2126,2124,2120,2126,2125,2124,2124,2125,2132,2126,2118,2125,2123,2118,2120,2119,2118,nan,nan,nan,nan,
62828247,62828491,62828705,62828918,62829132,62829346,62829559,62829773,62829987,62830200,62830414,62830627,62830841,62831055,62831268,62831482,62831696,62831909,62832123,62832336,62832550,62832764,62832977,62833191,62833405,62833618,62833832,62834045,62834259,62834473,62834686,62834900,62835114,62835327,62835541,62835754,62835968,62836182,62836395,62836609,62836823,nan,nan,nan,nan,
0,62844147,62854279,40,90751,45,
2262,2261,2265,2264,2268,2266,2266,2265,2273,2266,2267,2271,2273,2273,2271,2263,2271,2263,2266,2271,2271,2266,2274,2273,2273,2269,2265,2274,2273,2273,2267,2263,2268,2269,2266,2277,2271,2270,2275,2269,nan,nan,nan,nan,nan,
62845825,62846039,62846252,62846466,62846680,62846893,62847107,62847321,62847534,62847748,62847961,62848175,62848389,62848602,62848816,62849030,62849243,62849457,62849670,62849884,62850098,62850311,62850525,62850739,62850952,62851166,62851379,62851593,62851807,62852020,62852234,62852448,62852661,62852875,62853088,62853302,62853516,62853729,62853943,62854156,nan,nan,nan,nan,nan,
1,62861389,62871552,41,88446,45,
2161,2163,2159,2162,2155,2148,2159,2159,2158,2160,2161,2157,2161,2154,2155,2159,2159,2155,2157,2155,2162,2156,2156,2159,2151,2162,2158,2159,2159,2156,2159,2155,2159,2159,2157,2154,2155,2155,2152,2152,2154,nan,nan,nan,nan,
62862885,62863098,62863312,62863525,62863739,62863953,62864166,62864380,62864594,62864807,62865021,62865234,62865448,62865662,62865875,62866089,62866302,62866516,62866730,62866943,62867157,62867371,62867584,62867798,62868011,62868225,62868439,62868652,62868866,62869080,62869293,62869507,62869720,62869934,62870148,62870361,62870575,62870789,62871002,62871216,62871429,nan,nan,nan,nan,
2,62878754,62888947,40,84788,45,
2111,2121,2122,2118,2122,2124,2120,2120,2125,2120,2121,2122,2122,2116,2121,2124,2113,2114,2122,2121,2115,2122,2117,2124,2124,2124,2120,2124,2122,2120,2114,2118,2124,2116,2112,2115,2115,2124,2118,2121,nan,nan,nan,nan,nan,
62880463,62880707,62880920,62881134,62881348,62881561,62881775,62881989,62882202,62882416,62882629,62882843,62883057,62883270,62883484,62883698,62883911,62884125,62884338,62884552,62884766,62884979,62885193,62885406,62885620,62885834,62886047,62886261,62886475,62886688,62886902,62887115,62887329,62887543,62887756,62887970,62888184,62888397,62888611,62888824,nan,nan,nan,nan,nan,
3,62896057,62906219,41,85107,45,
2083,2082,2083,2074,2074,2079,2075,2074,2076,2077,2076,2077,2077,2072,2073,2076,2080,2070,2077,2078,2077,2075,2074,2074,2076,2075,2073,2072,2073,2080,2077,2080,2073,2077,2077,2078,2072,2077,2072,2069,2073,nan,nan,nan,nan,
62897522,62897766,62897980,62898193,62898407,62898621,62898834,62899048,62899261,62899475,62899689,62899902,62900116,62900330,62900543,62900757,62900970,62901184,62901398,62901611,62901825,62902039,62902252,62902466,62902679,62902893,62903107,62903320,62903534,62903748,62903961,62904175,62904388,62904602,62904816,62905029,62905243,62905457,62905670,62905884,62906097,nan,nan,nan,nan,
0,62913391,62923553,40,92966,45,
2313,2313,2311,2316,2321,2322,2323,2322,2322,2321,2326,2325,2323,2320,2317,2326,2318,2323,2322,2323,2323,2325,2326,2326,2322,2328,2322,2332,2324,2325,2331,2332,2332,2331,2332,2329,2328,2331,2332,2328,nan,nan,nan,nan,nan,
62915070,62915314,62915527,62915741,62915955,62916168,62916382,62916595,62916809,62917023,62917236,62917450,62917664,62917877,62918091,62918304,62918518,62918732,62918945,62919159,62919373,62919586,62919800,62920013,62920227,62920441,62920654,62920868,62921082,62921295,62921509,62921722,62921936,62922150,62922363,62922577,62922791,62923004,62923218,62923431,nan,nan,nan,nan,nan,
1,62930664,62940826,41,88083,45,
2148,2148,2150,2146,2149,2143,2149,2148,2150,2152,2148,2148,2148,2149,2145,2149,2147,2148,2149,2156,2150,2146,2145,2156,2148,2149,2143,2150,2148,2151,2153,2144,2148,2150,2148,2147,2144,2151,2149,2146,2147,nan,nan,nan,nan,
62932129,62932373,62932587,62932800,62933014,62933228,62933441,62933655,62933868,62934082,62934296,62934509,62934723,62934937,62935150,62935364,62935577,62935791,62936005,62936218,62936432,62936646,62936859,62937073,62937286,62937500,62937714,62937927,62938141,62938354,62938568,62938782,62938995,62939209,62939423,62939636,62939850,62940063,62940277,62940491,62940704,nan,nan,nan,nan,
2,62947998,62958191,40,83948,45,
2096,2099,2104,2101,2091,2103,2100,2096,2102,2100,2096,2099,2102,2103,2098,2101,2101,2100,2106,2097,2095,2101,2095,2096,2094,2096,2096,2102,2096,2099,2101,2099,2095,2101,2097,2096,2103,2100,2093,2098,nan,nan,nan,nan,nan,
62949738,62949951,62950165,62950378,62950592,62950806,62951019,62951233,62951447,62951660,62951874,62952087,62952301,62952515,62952728,62952942,62953156,62953369,62953583,62953796,62954010,62954224,62954437,62954651,62954865,62955078,62955292,62955505,62955719,62955933,62956146,62956360,62956573,62956787,62957001,62957214,62957428,62957642,62957855,62958069,nan,nan,nan,nan,nan,
3,62965302,62975433,41,83696,45,
2055,2050,2046,2044,2039,2042,2042,2044,2038,2043,2038,2042,2041,2044,2042,2041,2041,2038,2043,2044,2040,2039,2041,2047,2041,2038,2036,2042,2039,2039,2041,2039,2042,2041,2041,2036,2034,2043,2041,2041,2038,nan,nan,nan,nan,
62966766,62966980,62967194,62967407,62967621,62967834,62968048,62968262,62968475,62968689,62968903,62969116,62969330,62969543,62969757,62969971,62970184,62970398,62970612,62970825,62971039,62971252,62971466,62971680,62971893,62972107,62972321,62972534,62972748,62972961,62973175,62973389,62973602,62973816,62974030,62974243,62974457,62974670,62974884,62975098,62975311,nan,nan,nan,nan,
0,62982605,62992767,40,101232,45,
2499,2507,2513,2513,2512,2516,2517,2515,2512,2519,2515,2517,2517,2526,2530,2525,2523,2524,2534,2526,2537,2535,2535,2538,2536,2536,2540,2545,2540,2547,2542,2546,2541,2545,2554,2551,2547,2551,2554,2552,nan,nan,nan,nan,nan,
62984283,62984528,62984741,62984955,62985168,62985382,62985596,62985809,62986023,62986237,62986450,62986664,62986877,62987091,62987305,62987518,62987732,62987946,62988159,62988373,62988586,62988800,62989014,62989227,62989441,62989655,62989868,62990082,62990295,62990509,62990723,62990936,62991150,62991364,62991577,62991791,62992004,62992218,62992432,62992645,nan,nan,nan,nan,nan,
1,62999878,63010010,40,87032,45,
2185,2176,2174,2173,2176,2181,2175,2173,2170,2177,2179,2170,2170,2175,2173,2170,2180,2178,2174,2173,2174,2176,2173,2179,2179,2173,2176,2173,2179,2173,2173,2176,2173,2182,2178,2179,2173,2180,2182,2179,nan,nan,nan,nan,nan,
63001556,63001770,63001984,63002197,63002411,63002625,63002838,63003052,63003265,63003479,63003693,63003906,63004120,63004333,63004547,63004761,63004974,63005188,63005402,63005615,63005829,63006042,63006256,63006470,63006683,63006897,63007111,63007324,63007538,63007751,63007965,63008179,63008392,63008606,63008820,63009033,63009247,63009460,63009674,63009888,nan,nan,nan,nan,nan,
2,63017120,63027283,41,86022,45,
2094,2099,2100,2098,2103,2098,2099,2095,2091,2099,2096,2096,2096,2096,2098,2100,2099,2099,2093,2097,2095,2094,2097,2091,2100,2099,2102,2096,2096,2103,2101,2100,2101,2099,2102,2100,2096,2104,2100,2096,2104,nan,nan,nan,nan,
63018585,63018829,63019043,63019257,63019470,63019684,63019897,63020111,63020325,63020538,63020752,63020966,63021179,63021393,63021606,63021820,63022034,63022247,63022461,63022675,63022888,63023102,63023315,63023529,63023743,63023956,63024170,63024384,63024597,63024811,63025024,63025238,63025452,63025665,63025879,63026093,63026306,63026520,63026733,63026947,63027161,nan,nan,nan,nan,
3,63034485,63044647,40,80052,45,
2009,2003,2001,2003,2007,2006,2003,2000,2003,2003,2001,2003,2000,1995,2007,2005,2003,2006,2003,1991,1999,2010,2003,2000,2005,1998,1996,1995,2003,2000,1997,1999,2006,2000,2002,1993,2004,1997,1995,1998,nan,nan,nan,nan,nan,
63036163,63036407,63036621,63036835,63037048,63037262,63037476,63037689,63037903,63038116,63038330,63038544,63038757,63038971,63039185,63039398,63039612,63039825,63040039,63040253,63040466,63040680,63040894,63041107,63041321,63041534,63041748,63041962,63042175,63042389,63042603,63042816,63043030,63043243,63043457,63043671,63043884,63044098,63044312,63044525,nan,nan,nan,nan,nan,
0,63051758,63061951,41,122878,45,
2960,2979,2989,2994,2999,2995,2999,2999,2999,2999,2999,2999,2999,2999,2999,2998,2999,2999,2999,2999,2999,2999,2999,2997,2999,2999,2999,2999,2999,2999,2999,2999,2999,2999,2999,2999,2999,2999,2999,2999,2999,nan,nan,nan,nan,
63053253,63053497,63053711,63053925,63054138,63054352,63054565,63054779,63054993,63055206,63055420,63055634,63055847,63056061,63056274,63056488,63056702,63056915,63057129,63057343,63057556,63057770,63057983,63058197,63058411,63058624,63058838,63059052,63059265,63059479,63059692,63059906,63060120,63060333,63060547,63060760,63060974,63061188,63061401,63061615,63061829,nan,nan,nan,nan,
1,63069153,63079315,40,90826,45,
2284,2273,2270,2262,2266,2265,2266,2273,2269,2266,2266,2266,2265,2273,2271,2269,2267,2266,2265,2266,2271,2271,2265,2273,2271,2271,2273,2266,2276,2271,2271,2274,2278,2275,2275,2272,2285,2276,2270,2274,nan,nan,nan,nan,nan,
63070831,63071075,63071289,63071503,63071716,63071930,63072144,63072357,63072571,63072784,63072998,63073212,63073425,63073639,63073853,63074066,63074280,63074493,63074707,63074921,63075134,63075348,63075562,63075775,63075989,63076202,63076416,63076630,63076843,63077057,63077271,63077484,63077698,63077911,63078125,63078339,63078552,63078766,63078979,63079193,nan,nan,nan,nan,nan,
2,63086426,63096558,41,87159,45,
2121,2126,2129,2125,2121,2121,2121,2126,2126,2119,2126,2129,2126,2129,2119,2125,2126,2126,2126,2126,2127,2126,2126,2124,2124,2132,2133,2126,2126,2124,2125,2128,2129,2125,2132,2124,2127,2132,2125,2124,2127,nan,nan,nan,nan,
63087891,63088104,63088318,63088531,63088745,63088959,63089172,63089386,63089600,63089813,63090027,63090240,63090454,63090668,63090881,63091095,63091309,63091522,63091736,63091949,63092163,63092377,63092590,63092804,63093018,63093231,63093445,63093658,63093872,63094086,63094299,63094513,63094727,63094940,63095154,63095367,63095581,63095795,63096008,63096222,63096436,nan,nan,nan,nan,
3,63103760,63113953,40,79067,45,
1979,1979,1976,1980,1979,1978,1970,1979,1973,1979,1979,1976,1973,1978,1968,1975,1981,1973,1978,1973,1976,1978,1981,1976,1976,1979,1978,1979,1979,1980,1975,1973,1978,1981,1973,1976,1977,1980,1973,1973,nan,nan,nan,nan,nan,
63105499,63105713,63105927,63106140,63106354,63106567,63106781,63106995,63107208,63107422,63107635,63107849,63108063,63108276,63108490,63108704,63108917,63109131,63109344,63109558,63109772,63109985,63110199,63110413,63110626,63110840,63111053,63111267,63111481,63111694,63111908,63112122,63112335,63112549,63112762,63112976,63113190,63113403,63113617,63113831,nan,nan,nan,nan,nan,
0,63121063,63131226,41,122955,45,
2997,2999,2999,2999,2999,2999,2999,2999,2999,2997,2999,2999,2999,2999,2999,2999,2999,2999,2999,2999,2999,2999,2999,2999,2999,2999,2999,2999,2999,2999,2999,2999,2999,2999,2999,2999,2999,2999,2999,2999,2999,nan,nan,nan,nan,
63122528,63122772,63122986,63123199,63123413,63123627,63123840,63124054,63124268,63124481,63124695,63124908,63125122,63125336,63125549,63125763,63125977,63126190,63126404,63126617,63126831,63127045,63127258,63127472,63127686,63127899,63128113,63128326,63128540,63128754,63128967,63129181,63129395,63129608,63129822,63130035,63130249,63130463,63130676,63130890,63131104,nan,nan,nan,nan,
1,63138428,63148560,40,94839,45,
2465,2419,2395,2384,2365,2370,2365,2371,2367,2359,2360,2360,2362,2365,2367,2363,2357,2359,2367,2360,2366,2364,2372,2368,2366,2367,2367,2370,2366,2363,2365,2371,2374,2370,2370,2369,2367,2366,2371,2367,nan,nan,nan,nan,nan,
63140106,63140320,63140533,63140747,63140961,63141174,63141388,63141602,63141815,63142029,63142242,63142456,63142670,63142883,63143097,63143311,63143524,63143738,63143951,63144165,63144379,63144592,63144806,63145020,63145233,63145447,63145660,63145874,63146088,63146301,63146515,63146729,63146942,63147156,63147369,63147583,63147797,63148010,63148224,63148438,nan,nan,nan,nan,nan,
2,63155670,63165833,41,88794,45,
2167,2164,2165,2166,2164,2167,2163,2162,2162,2164,2164,2164,2161,2155,2164,2159,2166,2164,2166,2168,2168,2169,2165,2169,2177,2165,2170,2163,2167,2168,2161,2168,2166,2167,2175,2167,2167,2172,2160,2168,2167,nan,nan,nan,nan,
63157135,63157379,63157593,63157806,63158020,63158234,63158447,63158661,63158875,63159088,63159302,63159515,63159729,63159943,63160156,63160370,63160583,63160797,63161011,63161224,63161438,63161652,63161865,63162079,63162292,63162506,63162720,63162933,63163147,63163361,63163574,63163788,63164001,63164215,63164429,63164642,63164856,63165070,63165283,63165497,63165710,nan,nan,nan,nan,
3,63173035,63183228,40,78360,45,
1968,1968,1962,1962,1964,1963,1963,1956,1961,1958,1957,1966,1958,1957,1958,1958,1957,1956,1957,1959,1960,1960,1959,1958,1954,1959,1954,1958,1961,1954,1957,1962,1958,1960,1957,1955,1961,1954,1957,1954,nan,nan,nan,nan,nan,
63174774,63174988,63175201,63175415,63175629,63175842,63176056,63176270,63176483,63176697,63176910,63177124,63177338,63177551,63177765,63177979,63178192,63178406,63178619,63178833,63179047,63179260,63179474,63179688,63179901,63180115,63180328,63180542,63180756,63180969,63181183,63181396,63181610,63181824,63182037,63182251,63182465,63182678,63182892,63183105,nan,nan,nan,nan,nan,
0,63190338,63200500,41,122955,45,
2997,2999,2999,2999,2999,2999,2999,2999,2999,2999,2999,2999,2999,2999,2999,2999,2999,2999,2999,2999,2999,2999,2999,2999,2999,2999,2999,2999,2999,2999,2999,2999,2999,2999,2999,2999,2999,2999,2999,2997,2999,nan,nan,nan,nan,
63191803,63192047,63192261,63192474,63192688,63192902,63193115,63193329,63193542,63193756,63193970,63194183,63194397,63194611,63194824,63195038,63195251,63195465,63195679,63195892,63196106,63196320,63196533,63196747,63196960,63197174,63197388,63197601,63197815,63198029,63198242,63198456,63198669,63198883,63199097,63199310,63199524,63199738,63199951,63200165,63200378,nan,nan,nan,nan,
1,63207703,63217865,40,105323,45,
2999,2999,2987,2835,2733,2663,2635,2606,2592,2584,2586,2576,2577,2575,2581,2581,2581,2581,2587,2578,2586,2584,2587,2592,2598,2593,2588,2593,2593,2589,2594,2598,2594,2594,2600,2599,2601,2597,2600,2607,nan,nan,nan,nan,nan,
63209381,63209625,63209839,63210052,63210266,63210480,63210693,63210907,63211121,63211334,63211548,63211761,63211975,63212189,63212402,63212616,63212830,63213043,63213257,63213470,63213684,63213898,63214111,63214325,63214539,63214752,63214966,63215179,63215393,63215607,63215820,63216034,63216248,63216461,63216675,63216888,63217102,63217316,63217529,63217743,nan,nan,nan,nan,nan,
2,63224976,63235046,40,91093,45,
2289,2270,2264,2263,2270,2274,2274,2271,2272,2271,2272,2275,2273,2275,2277,2274,2273,2274,2270,2271,2277,2275,2277,2277,2282,2285,2285,2278,2282,2285,2280,2288,2288,2282,2284,2277,2288,2281,2288,2282,nan,nan,nan,nan,nan,
63226349,63226807,63227020,63227234,63227448,63227661,63227875,63228088,63228302,63228516,63228729,63228943,63229156,63229370,63229584,63229797,63230011,63230225,63230438,63230652,63230865,63231079,63231293,63231506,63231720,63231934,63232147,63232361,63232574,63232788,63233002,63233215,63233429,63233643,63233856,63234070,63234283,63234497,63234711,63234924,nan,nan,nan,nan,nan,
3,63242157,63252319,41,78132,45,
1925,1918,1916,1913,1910,1908,1911,1909,1907,1906,1906,1909,1906,1903,1903,1908,1906,1904,1903,1908,1902,1906,1907,1905,1901,1898,1905,1900,1902,1901,1903,1906,1900,1907,1900,1907,1900,1901,1903,1897,1902,nan,nan,nan,nan,
63243622,63243866,63244080,63244293,63244507,63244720,63244934,63245148,63245361,63245575,63245789,63246002,63246216,63246429,63246643,63246857,63247070,63247284,63247498,63247711,63247925,63248138,63248352,63248566,63248779,63248993,63249207,63249420,63249634,63249847,63250061,63250275,63250488,63250702,63250916,63251129,63251343,63251556,63251770,63251984,63252197,nan,nan,nan,nan,
0,63259491,63269501,39,116959,45,
2999,2999,2999,2998,2999,2999,2999,2999,2998,2999,2999,2999,2999,2999,2999,2999,2999,2999,2999,2999,2999,2999,2999,2999,2999,2999,2999,2999,2999,2999,2999,2999,2999,2999,2999,2999,2999,2999,2999,nan,nan,nan,nan,nan,nan,
63261230,63261475,63261688,63261902,63262115,63262329,63262543,63262756,63262970,63263184,63263397,63263611,63263824,63264038,63264252,63264465,63264679,63264893,63265106,63265320,63265533,63265747,63265961,63266174,63266388,63266602,63266815,63267029,63267242,63267456,63267670,63267883,63268097,63268311,63268524,63268738,63268951,63269165,63269379,nan,nan,nan,nan,nan,nan,
1,63276581,63286774,41,122959,45,
2999,2999,2999,2999,2999,2999,2999,2999,2999,2999,2999,2999,2999,2999,2999,2999,2999,2999,2999,2999,2999,2999,2999,2999,2999,2999,2999,2999,2999,2999,2999,2999,2999,2999,2999,2999,2999,2999,2999,2999,2999,nan,nan,nan,nan,
63278107,63278320,63278534,63278748,63278961,63279175,63279388,63279602,63279816,63280029,63280243,63280457,63280670,63280884,63281097,63281311,63281525,63281738,63281952,63282166,63282379,63282593,63282806,63283020,63283234,63283447,63283661,63283875,63284088,63284302,63284515,63284729,63284943,63285156,63285370,63285583,63285797,63286011,63286224,63286438,63286652,nan,nan,nan,nan,
2,63293976,63304138,40,104451,45,
2655,2604,2593,2589,2584,2584,2589,2592,2597,2589,2592,2593,2594,2601,2600,2605,2605,2600,2594,2603,2611,2612,2611,2605,2615,2611,2618,2619,2618,2622,2625,2628,2629,2631,2636,2636,2635,2637,2645,2644,nan,nan,nan,nan,nan,
63295654,63295898,63296112,63296326,63296539,63296753,63296967,63297180,63297394,63297607,63297821,63298035,63298248,63298462,63298676,63298889,63299103,63299316,63299530,63299744,63299957,63300171,63300385,63300598,63300812,63301025,63301239,63301453,63301666,63301880,63302094,63302307,63302521,63302734,63302948,63303162,63303375,63303589,63303802,63304016,nan,nan,nan,nan,nan,
3,63311249,63321411,40,72802,45,
1847,1840,1827,1831,1818,1828,1820,1819,1817,1828,1819,1820,1826,1815,1818,1821,1820,1820,1820,1819,1816,1818,1814,1817,1821,1820,1822,1818,1820,1822,1819,1819,1815,1814,1813,1814,1815,1814,1809,1809,nan,nan,nan,nan,nan,
63312927,63313171,63313385,63313599,63313812,63314026,63314240,63314453,63314667,63314880,63315094,63315308,63315521,63315735,63315948,63316162,63316376,63316589,63316803,63317017,63317230,63317444,63317657,63317871,63318085,63318298,63318512,63318726,63318939,63319153,63319366,63319580,63319794,63320007,63320221,63320435,63320648,63320862,63321075,63321289,nan,nan,nan,nan,nan,
0,63328522,63338715,41,122957,45,
2999,2999,2999,2999,2999,2999,2999,2999,2999,2999,2999,2999,2999,2999,2999,2997,2999,2999,2999,2999,2999,2999,2999,2999,2999,2999,2999,2999,2999,2999,2999,2999,2999,2999,2999,2999,2999,2999,2999,2999,2999,nan,nan,nan,nan,
63330017,63330261,63330475,63330688,63330902,63331116,63331329,63331543,63331757,63331970,63332184,63332397,63332611,63332825,63333038,63333252,63333466,63333679,63333893,63334106,63334320,63334534,63334747,63334961,63335175,63335388,63335602,63335815,63336029,63336243,63336456,63336670,63336884,63337097,63337311,63337524,63337738,63337952,63338165,63338379,63338593,nan,nan,nan,nan,
1,63345917,63356079,40,119960,45,
2999,2999,2999,2999,2999,2999,2999,2999,2999,2999,2999,2999,2999,2999,2999,2999,2999,2999,2999,2999,2999,2999,2999,2999,2999,2999,2999,2999,2999,2999,2999,2999,2999,2999,2999,2999,2999,2999,2999,2999,nan,nan,nan,nan,nan,
63347626,63347839,63348053,63348267,63348480,63348694,63348907,63349121,63349335,63349548,63349762,63349976,63350189,63350403,63350616,63350830,63351044,63351257,63351471,63351685,63351898,63352112,63352325,63352539,63352753,63352966,63353180,63353394,63353607,63353821,63354034,63354248,63354462,63354675,63354889,63355103,63355316,63355530,63355743,63355957,nan,nan,nan,nan,nan,
2,63363190,63373322,40,119960,45,
2999,2999,2999,2999,2999,2999,2999,2999,2999,2999,2999,2999,2999,2999,2999,2999,2999,2999,2999,2999,2999,2999,2999,2999,2999,2999,2999,2999,2999,2999,2999,2999,2999,2999,2999,2999,2999,2999,2999,2999,nan,nan,nan,nan,nan,
63364838,63365082,63365295,63365509,63365723,63365936,63366150,63366364,63366577,63366791,63367004,63367218,63367432,63367645,63367859,63368073,63368286,63368500,63368713,63368927,63369141,63369354,63369568,63369781,63369995,63370209,63370422,63370636,63370850,63371063,63371277,63371490,63371704,63371918,63372131,63372345,63372559,63372772,63372986,63373199,nan,nan,nan,nan,nan,
3,63380432,63390564,40,68783,45,
1949,1780,1750,1734,1727,1727,1717,1715,1718,1716,1714,1711,1715,1710,1712,1714,1713,1710,1710,1710,1708,1716,1710,1705,1703,1715,1703,1713,1704,1710,1708,1704,1701,1704,1708,1704,1708,1699,1701,1707,nan,nan,nan,nan,nan,
63382080,63382324,63382538,63382751,63382965,63383179,63383392,63383606,63383820,63384033,63384247,63384460,63384674,63384888,63385101,63385315,63385529,63385742,63385956,63386169,63386383,63386597,63386810,63387024,63387238,63387451,63387665,63387878,63388092,63388306,63388519,63388733,63388947,63389160,63389374,63389587,63389801,63390015,63390228,63390442,nan,nan,nan,nan,nan,
0,63397675,63407806,41,122952,45,
2997,2999,2997,2997,2999,2999,2998,2999,2999,2999,2999,2999,2999,2999,2999,2999,2999,2999,2999,2999,2999,2999,2999,2999,2999,2999,2999,2999,2999,2999,2999,2999,2999,2999,2999,2999,2999,2999,2999,2999,2999,nan,nan,nan,nan,
63399109,63399353,63399567,63399780,63399994,63400208,63400421,63400635,63400848,63401062,63401276,63401489,63401703,63401917,63402130,63402344,63402557,63402771,63402985,63403198,63403412,63403625,63403839,63404053,63404266,63404480,63404694,63404907,63405121,63405334,63405548,63405762,63405975,63406189,63406403,63406616,63406830,63407043,63407257,63407471,63407684,nan,nan,nan,nan,
1,63415009,63425201,40,119960,45,
2999,2999,2999,2999,2999,2999,2999,2999,2999,2999,2999,2999,2999,2999,2999,2999,2999,2999,2999,2999,2999,2999,2999,2999,2999,2999,2999,2999,2999,2999,2999,2999,2999,2999,2999,2999,2999,2999,2999,2999,nan,nan,nan,nan,nan,
63416748,63416962,63417175,63417389,63417603,63417816,63418030,63418243,63418457,63418671,63418884,63419098,63419312,63419525,63419739,63419952,63420166,63420380,63420593,63420807,63421021,63421234,63421448,63421661,63421875,63422089,63422302,63422516,63422729,63422943,63423157,63423370,63423584,63423798,63424011,63424225,63424438,63424652,63424866,63425079,nan,nan,nan,nan,nan,
2,63432312,63442444,40,119960,45,
2999,2999,2999,2999,2999,2999,2999,2999,2999,2999,2999,2999,2999,2999,2999,2999,2999,2999,2999,2999,2999,2999,2999,2999,2999,2999,2999,2999,2999,2999,2999,2999,2999,2999,2999,2999,2999,2999,2999,2999,nan,nan,nan,nan,nan,
63433960,63434204,63434418,63434631,63434845,63435059,63435272,63435486,63435699,63435913,63436127,63436340,63436554,63436768,63436981,63437195,63437408,63437622,63437836,63438049,63438263,63438477,63438690,63438904,63439117,63439331,63439545,63439758,63439972,63440186,63440399,63440613,63440826,63441040,63441254,63441467,63441681,63441895,63442108,63442322,nan,nan,nan,nan,nan,
3,63449554,63459686,40,67343,45,
2596,1923,1807,1739,1699,1675,1666,1656,1653,1650,1650,1646,1645,1646,1645,1646,1652,1645,1636,1645,1642,1649,1642,1641,1642,1639,1643,1639,1640,1642,1645,1639,1634,1645,1639,1645,1641,1639,1634,1643,nan,nan,nan,nan,nan,
63451202,63451447,63451660,63451874,63452087,63452301,63452515,63452728,63452942,63453156,63453369,63453583,63453796,63454010,63454224,63454437,63454651,63454865,63455078,63455292,63455505,63455719,63455933,63456146,63456360,63456573,63456787,63457001,63457214,63457428,63457642,63457855,63458069,63458282,63458496,63458710,63458923,63459137,63459351,63459564,nan,nan,nan,nan,nan,
0,63466797,63476959,41,122956,45,
2999,2999,2999,2999,2999,2999,2999,2999,2999,2999,2999,2999,2999,2999,2999,2999,2999,2999,2999,2999,2999,2999,2999,2999,2999,2999,2997,2998,2999,2999,2999,2999,2999,2999,2999,2999,2999,2999,2999,2999,2999,nan,nan,nan,nan,
63468262,63468506,63468719,63468933,63469147,63469360,63469574,63469788,63470001,63470215,63470428,63470642,63470856,63471069,63471283,63471497,63471710,63471924,63472137,63472351,63472565,63472778,63472992,63473206,63473419,63473633,63473846,63474060,63474274,63474487,63474701,63474915,63475128,63475342,63475555,63475769,63475983,63476196,63476410,63476624,63476837,nan,nan,nan,nan,
1,63484161,63494293,40,119960,45,
2999,2999,2999,2999,2999,2999,2999,2999,2999,2999,2999,2999,2999,2999,2999,2999,2999,2999,2999,2999,2999,2999,2999,2999,2999,2999,2999,2999,2999,2999,2999,2999,2999,2999,2999,2999,2999,2999,2999,2999,nan,nan,nan,nan,nan,
63485840,63486053,63486267,63486481,63486694,63486908,63487122,63487335,63487549,63487762,63487976,63488190,63488403,63488617,63488831,63489044,63489258,63489471,63489685,63489899,63490112,63490326,63490540,63490753,63490967,63491180,63491394,63491608,63491821,63492035,63492249,63492462,63492676,63492889,63493103,63493317,63493530,63493744,63493958,63494171,nan,nan,nan,nan,nan,
2,63501404,63511536,40,119960,45,
2999,2999,2999,2999,2999,2999,2999,2999,2999,2999,2999,2999,2999,2999,2999,2999,2999,2999,2999,2999,2999,2999,2999,2999,2999,2999,2999,2999,2999,2999,2999,2999,2999,2999,2999,2999,2999,2999,2999,2999,nan,nan,nan,nan,nan,
63503052,63503296,63503510,63503723,63503937,63504150,63504364,63504578,63504791,63505005,63505219,63505432,63505646,63505859,63506073,63506287,63506500,63506714,63506927,63507141,63507355,63507568,63507782,63507996,63508209,63508423,63508636,63508850,63509064,63509277,63509491,63509705,63509918,63510132,63510345,63510559,63510773,63510986,63511200,63511414,nan,nan,nan,nan,nan,
3,63518646,63528778,40,65959,45,
2655,1907,1780,1717,1669,1645,1631,1613,1621,1609,1609,1609,1612,1610,1606,1607,1606,1604,1604,1604,1607,1593,1603,1603,1602,1604,1605,1598,1602,1608,1606,1605,1597,1598,1604,1601,1598,1601,1597,1609,nan,nan,nan,nan,nan,
63520294,63520538,63520752,63520966,63521179,63521393,63521606,63521820,63522034,63522247,63522461,63522675,63522888,63523102,63523315,63523529,63523743,63523956,63524170,63524384,63524597,63524811,63525024,63525238,63525452,63525665,63525879,63526093,63526306,63526520,63526733,63526947,63527161,63527374,63527588,63527802,63528015,63528229,63528442,63528656,nan,nan,nan,nan,nan,
0,63535889,63546051,41,122956,45,
2999,2999,2999,2999,2999,2999,2999,2999,2999,2999,2998,2999,2999,2999,2999,2999,2999,2997,2999,2999,2999,2999,2999,2999,2999,2999,2999,2999,2999,2999,2999,2999,2999,2999,2999,2999,2999,2999,2999,2999,2999,nan,nan,nan,nan,
63537354,63537598,63537811,63538025,63538239,63538452,63538666,63538879,63539093,63539307,63539520,63539734,63539948,63540161,63540375,63540588,63540802,63541016,63541229,63541443,63541656,63541870,63542084,63542297,63542511,63542725,63542938,63543152,63543365,63543579,63543793,63544006,63544220,63544434,63544647,63544861,63545074,63545288,63545502,63545715,63545929,nan,nan,nan,nan,
1,63553253,63563416,40,119960,45,
2999,2999,2999,2999,2999,2999,2999,2999,2999,2999,2999,2999,2999,2999,2999,2999,2999,2999,2999,2999,2999,2999,2999,2999,2999,2999,2999,2999,2999,2999,2999,2999,2999,2999,2999,2999,2999,2999,2999,2999,nan,nan,nan,nan,nan,
63554932,63555176,63555389,63555603,63555817,63556030,63556244,63556458,63556671,63556885,63557098,63557312,63557526,63557739,63557953,63558167,63558380,63558594,63558807,63559021,63559235,63559448,63559662,63559875,63560089,63560303,63560516,63560730,63560944,63561157,63561371,63561584,63561798,63562012,63562225,63562439,63562653,63562866,63563080,63563293,nan,nan,nan,nan,nan,
2,63570526,63580719,40,119960,45,
2999,2999,2999,2999,2999,2999,2999,2999,2999,2999,2999,2999,2999,2999,2999,2999,2999,2999,2999,2999,2999,2999,2999,2999,2999,2999,2999,2999,2999,2999,2999,2999,2999,2999,2999,2999,2999,2999,2999,2999,nan,nan,nan,nan,nan,
63572235,63572479,63572693,63572906,63573120,63573334,63573547,63573761,63573975,63574188,63574402,63574615,63574829,63575043,63575256,63575470,63575684,63575897,63576111,63576324,63576538,63576752,63576965,63577179,63577393,63577606,63577820,63578033,63578247,63578461,63578674,63578888,63579102,63579315,63579529,63579742,63579956,63580170,63580383,63580597,nan,nan,nan,nan,nan,
3,63587830,63597961,40,61484,45,
1822,1619,1587,1562,1557,1540,1546,1540,1541,1539,1538,1541,1535,1532,1530,1532,1530,1527,1527,1528,1527,1521,1523,1516,1523,1515,1519,1516,1516,1514,1517,1515,1516,1519,1508,1510,1508,1506,1512,1510,nan,nan,nan,nan,nan,
63589478,63589722,63589935,63590149,63590363,63590576,63590790,63591003,63591217,63591431,63591644,63591858,63592072,63592285,63592499,63592712,63592926,63593140,63593353,63593567,63593781,63593994,63594208,63594421,63594635,63594849,63595062,63595276,63595490,63595703,63595917,63596130,63596344,63596558,63596771,63596985,63597198,63597412,63597626,63597839,nan,nan,nan,nan,nan,
0,63605072,63615204,41,65795,45,
1617,1619,1617,1613,1618,1614,1613,1614,1613,1611,1614,1611,1617,1609,1609,1606,1609,1605,1597,1603,1606,1598,1603,1599,1604,1600,1598,1600,1597,1601,1593,1598,1597,1598,1598,1598,1595,1592,1599,1598,1594,nan,nan,nan,nan,
63606537,63606750,63606964,63607178,63607391,63607605,63607819,63608032,63608246,63608459,63608673,63608887,63609100,63609314,63609528,63609741,63609955,63610168,63610382,63610596,63610809,63611023,63611237,63611450,63611664,63611877,63612091,63612305,63612518,63612732,63612946,63613159,63613373,63613586,63613800,63614014,63614227,63614441,63614655,63614868,63615082,nan,nan,nan,nan,
1,63622375,63632538,40,88430,45,
2197,2200,2204,2211,2205,2213,2208,2207,2209,2208,2206,2210,2206,2215,2214,2210,2212,2211,2211,2214,2206,2206,2208,2213,2214,2211,2212,2212,2215,2211,2215,2219,2220,2211,2214,2210,2214,2214,2218,2216,nan,nan,nan,nan,nan,
63624084,63624298,63624512,63624725,63624939,63625153,63625366,63625580,63625793,63626007,63626221,63626434,63626648,63626862,63627075,63627289,63627502,63627716,63627930,63628143,63628357,63628571,63628784,63628998,63629211,63629425,63629639,63629852,63630066,63630280,63630493,63630707,63630920,63631134,63631348,63631561,63631775,63631989,63632202,63632416,nan,nan,nan,nan,nan,
2,63639648,63649780,41,104198,45,
2516,2529,2530,2530,2540,2533,2542,2535,2537,2540,2544,2536,2541,2540,2540,2530,2539,2534,2536,2542,2540,2545,2545,2543,2543,2548,2547,2547,2545,2548,2548,2545,2547,2549,2546,2551,2545,2548,2553,2547,2554,nan,nan,nan,nan,
63641113,63641327,63641541,63641754,63641968,63642181,63642395,63642609,63642822,63643036,63643250,63643463,63643677,63643890,63644104,63644318,63644531,63644745,63644958,63645172,63645386,63645599,63645813,63646027,63646240,63646454,63646667,63646881,63647095,63647308,63647522,63647736,63647949,63648163,63648376,63648590,63648804,63649017,63649231,63649445,63649658,nan,nan,nan,nan,
3,63657196,63667297,41,62129,45,
1561,1542,1530,1523,1519,1517,1520,1515,1515,1512,1516,1502,1508,1510,1510,1514,1514,1513,1517,1511,1508,1514,1508,1514,1512,1514,1514,1513,1505,1510,1512,1516,1510,1510,1516,1517,1513,1512,1513,1510,1519,nan,nan,nan,nan,
63658630,63658844,63659058,63659271,63659485,63659698,63659912,63660126,63660339,63660553,63660767,63660980,63661194,63661407,63661621,63661835,63662048,63662262,63662476,63662689,63662903,63663116,63663330,63663544,63663757,63663971,63664185,63664398,63664612,63664825,63665039,63665253,63665466,63665680,63665894,63666107,63666321,63666534,63666748,63666962,63667175,nan,nan,nan,nan,
0,63674469,63684601,40,63478,45,
1582,1580,1585,1587,1587,1581,1584,1590,1590,1587,1585,1590,1582,1585,1585,1582,1592,1587,1588,1586,1580,1587,1588,1590,1585,1593,1588,1584,1590,1590,1593,1579,1584,1587,1595,1590,1593,1588,1592,1587,nan,nan,nan,nan,nan,
63676147,63676361,63676575,63676788,63677002,63677216,63677429,63677643,63677856,63678070,63678284,63678497,63678711,63678925,63679138,63679352,63679565,63679779,63679993,63680206,63680420,63680634,63680847,63681061,63681274,63681488,63681702,63681915,63682129,63682343,63682556,63682770,63682983,63683197,63683411,63683624,63683838,63684052,63684265,63684479,nan,nan,nan,nan,nan,
1,63691711,63701874,41,95197,45,
2280,2291,2303,2305,2308,2304,2312,2310,2309,2315,2315,2312,2321,2313,2321,2321,2319,2320,2319,2319,2321,2323,2328,2325,2322,2328,2329,2331,2331,2334,2336,2334,2334,2336,2341,2337,2339,2337,2337,2340,2337,nan,nan,nan,nan,
63693176,63693420,63693634,63693848,63694061,63694275,63694489,63694702,63694916,63695129,63695343,63695557,63695770,63695984,63696198,63696411,63696625,63696838,63697052,63697266,63697479,63697693,63697906,63698120,63698334,63698547,63698761,63698975,63699188,63699402,63699615,63699829,63700043,63700256,63700470,63700684,63700897,63701111,63701324,63701538,63701752,nan,nan,nan,nan,
2,63709076,63719238,40,107462,45,
2670,2669,2674,2674,2676,2676,2677,2673,2677,2678,2686,2684,2678,2679,2680,2684,2687,2689,2685,2687,2685,2690,2688,2690,2685,2693,2694,2695,2691,2691,2698,2693,2698,2694,2704,2694,2698,2698,2701,2699,nan,nan,nan,nan,nan,
63710785,63710999,63711212,63711426,63711639,63711853,63712067,63712280,63712494,63712708,63712921,63713135,63713348,63713562,63713776,63713989,63714203,63714417,63714630,63714844,63715057,63715271,63715485,63715698,63715912,63716125,63716339,63716553,63716766,63716980,63717194,63717407,63717621,63717834,63718048,63718262,63718475,63718689,63718903,63719116,nan,nan,nan,nan,nan,
3,63726349,63736481,40,60564,45,
1570,1525,1517,1521,1513,1509,1508,1508,1510,1508,1510,1510,1511,1510,1514,1510,1509,1510,1511,1513,1513,1513,1513,1508,1512,1513,1516,1513,1516,1515,1519,1515,1511,1513,1512,1516,1510,1514,1510,1515,nan,nan,nan,nan,nan,
63727997,63728241,63728455,63728668,63728882,63729095,63729309,63729523,63729736,63729950,63730164,63730377,63730591,63730804,63731018,63731232,63731445,63731659,63731873,63732086,63732300,63732513,63732727,63732941,63733154,63733368,63733582,63733795,63734009,63734222,63734436,63734650,63734863,63735077,63735291,63735504,63735718,63735931,63736145,63736359,nan,nan,nan,nan,nan,
0,63743591,63753754,41,64847,45,
1575,1580,1579,1573,1573,1582,1579,1573,1579,1576,1585,1584,1579,1580,1578,1581,1581,1579,1574,1582,1582,1581,1580,1583,1586,1579,1585,1587,1587,1584,1589,1586,1587,1587,1587,1590,1583,1580,1587,1584,1581,nan,nan,nan,nan,
63745056,63745300,63745514,63745728,63745941,63746155,63746368,63746582,63746796,63747009,63747223,63747437,63747650,63747864,63748077,63748291,63748505,63748718,63748932,63749146,63749359,63749573,63749786,63750000,63750214,63750427,63750641,63750854,63751068,63751282,63751495,63751709,63751923,63752136,63752350,63752563,63752777,63752991,63753204,63753418,63753632,nan,nan,nan,nan,
1,63760925,63771057,40,97493,45,
2409,2421,2425,2425,2436,2437,2429,2438,2436,2430,2429,2440,2434,2439,2436,2438,2435,2436,2441,2436,2442,2443,2442,2441,2443,2443,2440,2441,2438,2437,2445,2437,2441,2446,2449,2442,2442,2441,2449,2441,nan,nan,nan,nan,nan,
63762604,63762817,63763031,63763245,63763458,63763672,63763885,63764099,63764313,63764526,63764740,63764954,63765167,63765381,63765594,63765808,63766022,63766235,63766449,63766663,63766876,63767090,63767303,63767517,63767731,63767944,63768158,63768372,63768585,63768799,63769012,63769226,63769440,63769653,63769867,63770081,63770294,63770508,63770721,63770935,nan,nan,nan,nan,nan,
2,63778168,63788330,41,112601,45,
2720,2734,2742,2735,2744,2735,2749,2743,2749,2742,2745,2748,2742,2743,2745,2748,2750,2744,2750,2749,2745,2751,2746,2747,2744,2753,2747,2746,2750,2753,2751,2750,2750,2750,2755,2747,2753,2754,2749,2750,2753,nan,nan,nan,nan,
63779633,63779877,63780090,63780304,63780518,63780731,63780945,63781158,63781372,63781586,63781799,63782013,63782227,63782440,63782654,63782867,63783081,63783295,63783508,63783722,63783936,63784149,63784363,63784576,63784790,63785004,63785217,63785431,63785645,63785858,63786072,63786285,63786499,63786713,63786926,63787140,63787354,63787567,63787781,63787994,63788208,nan,nan,nan,nan,
3,63795532,63805725,40,60609,45,
1539,1521,1525,1515,1516,1514,1510,1512,1511,1510,1514,1508,1513,1513,1516,1518,1517,1513,1515,1517,1510,1516,1516,1515,1515,1510,1510,1521,1513,1515,1513,1512,1519,1511,1518,1516,1521,1518,1510,1513,nan,nan,nan,nan,nan,
63797272,63797485,63797699,63797913,63798126,63798340,63798553,63798767,63798981,63799194,63799408,63799622,63799835,63800049,63800262,63800476,63800690,63800903,63801117,63801331,63801544,63801758,63801971,63802185,63802399,63802612,63802826,63803040,63803253,63803467,63803680,63803894,63804108,63804321,63804535,63804749,63804962,63805176,63805389,63805603,nan,nan,nan,nan,nan,
0,63812836,63822998,41,64868,45,
1577,1582,1582,1575,1582,1573,1574,1580,1578,1584,1580,1585,1583,1584,1587,1587,1585,1576,1585,1586,1582,1582,1581,1582,1587,1584,1579,1579,1586,1581,1584,1581,1587,1583,1584,1585,1580,1585,1582,1584,1585,nan,nan,nan,nan,
63814331,63814545,63814758,63814972,63815186,63815399,63815613,63815826,63816040,63816254,63816467,63816681,63816895,63817108,63817322,63817535,63817749,63817963,63818176,63818390,63818604,63818817,63819031,63819244,63819458,63819672,63819885,63820099,63820313,63820526,63820740,63820953,63821167,63821381,63821594,63821808,63822021,63822235,63822449,63822662,63822876,nan,nan,nan,nan,
1,63830170,63840332,40,97992,45,
2433,2440,2441,2442,2442,2442,2448,2445,2449,2447,2447,2447,2455,2453,2449,2455,2447,2455,2450,2454,2448,2453,2456,2452,2455,2452,2450,2455,2452,2456,2453,2453,2453,2451,2455,2454,2451,2452,2451,2449,nan,nan,nan,nan,nan,
63831848,63832092,63832306,63832520,63832733,63832947,63833160,63833374,63833588,63833801,63834015,63834229,63834442,63834656,63834869,63835083,63835297,63835510,63835724,63835938,63836151,63836365,63836578,63836792,63837006,63837219,63837433,63837646,63837860,63838074,63838287,63838501,63838715,63838928,63839142,63839355,63839569,63839783,63839996,63840210,nan,nan,nan,nan,nan,
2,63847443,63857605,41,112780,45,
2726,2742,2743,2747,2747,2744,2747,2747,2747,2753,2756,2747,2756,2756,2753,2750,2753,2753,2754,2754,2753,2756,2755,2753,2756,2751,2755,2756,2745,2756,2758,2752,2747,2753,2750,2753,2759,2756,2745,2747,2749,nan,nan,nan,nan,
63848907,63849152,63849365,63849579,63849792,63850006,63850220,63850433,63850647,63850861,63851074,63851288,63851501,63851715,63851929,63852142,63852356,63852570,63852783,63852997,63853210,63853424,63853638,63853851,63854065,63854279,63854492,63854706,63854919,63855133,63855347,63855560,63855774,63855988,63856201,63856415,63856628,63856842,63857056,63857269,63857483,nan,nan,nan,nan,
3,63864807,63875000,40,60635,45,
1534,1527,1528,1519,1521,1514,1513,1519,1517,1518,1519,1519,1514,1520,1521,1508,1513,1516,1511,1513,1516,1514,1515,1510,1516,1514,1517,1524,1505,1515,1513,1515,1512,1512,1512,1510,1513,1516,1510,1512,nan,nan,nan,nan,nan,
63866547,63866760,63866974,63867188,63867401,63867615,63867828,63868042,63868256,63868469,63868683,63868896,63869110,63869324,63869537,63869751,63869965,63870178,63870392,63870605,63870819,63871033,63871246,63871460,63871674,63871887,63872101,63872314,63872528,63872742,63872955,63873169,63873383,63873596,63873810,63874023,63874237,63874451,63874664,63874878,nan,nan,nan,nan,nan,
0,63882111,63892273,41,64957,45,
1574,1587,1579,1583,1581,1584,1587,1585,1587,1590,1588,1587,1588,1587,1587,1583,1585,1581,1588,1585,1579,1593,1587,1588,1584,1582,1585,1586,1588,1587,1587,1587,1585,1587,1582,1577,1582,1581,1578,1575,1581,nan,nan,nan,nan,
63883606,63883820,63884033,63884247,63884460,63884674,63884888,63885101,63885315,63885529,63885742,63885956,63886169,63886383,63886597,63886810,63887024,63887238,63887451,63887665,63887878,63888092,63888306,63888519,63888733,63888947,63889160,63889374,63889587,63889801,63890015,63890228,63890442,63890656,63890869,63891083,63891296,63891510,63891724,63891937,63892151,nan,nan,nan,nan,
1,63899445,63909607,40,98433,45,
2440,2449,2453,2460,2460,2460,2457,2460,2463,2461,2466,2458,2463,2465,2472,2460,2464,2466,2462,2463,2464,2463,2463,2454,2460,2463,2463,2460,2462,2458,2461,2463,2455,2466,2463,2467,2463,2460,2465,2458,nan,nan,nan,nan,nan,
63901123,63901367,63901581,63901794,63902008,63902222,63902435,63902649,63902863,63903076,63903290,63903503,63903717,63903931,63904144,63904358,63904572,63904785,63904999,63905212,63905426,63905640,63905853,63906067,63906281,63906494,63906708,63906921,63907135,63907349,63907562,63907776,63907990,63908203,63908417,63908630,63908844,63909058,63909271,63909485,nan,nan,nan,nan,nan,
2,63916718,63926880,41,112974,45,
2748,2750,2756,2759,2751,2750,2753,2758,2755,2759,2759,2765,2756,2757,2764,2758,2759,2759,2761,2747,2756,2758,2758,2756,2755,2753,2755,2757,2753,2755,2760,2759,2753,2754,2748,2746,2756,2758,2760,2753,2747,nan,nan,nan,nan,
63918182,63918427,63918640,63918854,63919067,63919281,63919495,63919708,63919922,63920135,63920349,63920563,63920776,63920990,63921204,63921417,63921631,63921844,63922058,63922272,63922485,63922699,63922913,63923126,63923340,63923553,63923767,63923981,63924194,63924408,63924622,63924835,63925049,63925262,63925476,63925690,63925903,63926117,63926331,63926544,63926758,nan,nan,nan,nan,
3,63934082,63944244,40,60585,45,
1540,1536,1524,1524,1519,1519,1513,1517,1517,1523,1513,1516,1520,1516,1516,1516,1514,1513,1513,1515,1508,1514,1513,1508,1511,1512,1508,1511,1513,1505,1508,1508,1508,1509,1516,1510,1510,1505,1514,1510,nan,nan,nan,nan,nan,
63935791,63936005,63936218,63936432,63936646,63936859,63937073,63937286,63937500,63937714,63937927,63938141,63938354,63938568,63938782,63938995,63939209,63939423,63939636,63939850,63940063,63940277,63940491,63940704,63940918,63941132,63941345,63941559,63941772,63941986,63942200,63942413,63942627,63942841,63943054,63943268,63943481,63943695,63943909,63944122,nan,nan,nan,nan,nan,
0,63951355,63961487,41,64934,45,
1584,1584,1585,1584,1585,1592,1590,1587,1587,1590,1587,1585,1586,1592,1586,1581,1584,1584,1581,1582,1581,1586,1586,1583,1586,1581,1584,1584,1582,1581,1584,1579,1581,1584,1573,1577,1581,1576,1583,1582,1584,nan,nan,nan,nan,
63952820,63953033,63953247,63953461,63953674,63953888,63954102,63954315,63954529,63954742,63954956,63955170,63955383,63955597,63955811,63956024,63956238,63956451,63956665,63956879,63957092,63957306,63957520,63957733,63957947,63958160,63958374,63958588,63958801,63959015,63959229,63959442,63959656,63959869,63960083,63960297,63960510,63960724,63960938,63961151,63961365,nan,nan,nan,nan,
1,63968658,63978790,40,99414,45,
2466,2475,2482,2485,2482,2477,2490,2490,2485,2489,2487,2487,2489,2488,2488,2491,2492,2493,2490,2485,2485,2482,2488,2487,2487,2485,2483,2488,2483,2484,2485,2482,2488,2485,2488,2486,2485,2485,2483,2484,nan,nan,nan,nan,nan,
63970337,63970551,63970764,63970978,63971191,63971405,63971619,63971832,63972046,63972260,63972473,63972687,63972900,63973114,63973328,63973541,63973755,63973969,63974182,63974396,63974609,63974823,63975037,63975250,63975464,63975677,63975891,63976105,63976318,63976532,63976746,63976959,63977173,63977386,63977600,63977814,63978027,63978241,63978455,63978668,nan,nan,nan,nan,nan,
2,63985901,63996063,41,113384,45,
2752,2757,2761,2770,2771,2768,2767,2767,2770,2768,2763,2763,2770,2770,2768,2774,2762,2770,2768,2769,2764,2759,2764,2763,2766,2767,2757,2767,2764,2768,2769,2760,2770,2767,2762,2767,2764,2767,2764,2759,2768,nan,nan,nan,nan,
63987366,63987610,63987823,63988037,63988251,63988464,63988678,63988892,63989105,63989319,63989532,63989746,63989960,63990173,63990387,63990601,63990814,63991028,63991241,63991455,63991669,63991882,63992096,63992310,63992523,63992737,63992950,63993164,63993378,63993591,63993805,63994019,63994232,63994446,63994659,63994873,63995087,63995300,63995514,63995728,63995941,nan,nan,nan,nan,
3,64003265,64013428,40,60508,45,
1566,1528,1529,1520,1511,1513,1513,1516,1512,1513,1513,1510,1514,1510,1515,1512,1514,1510,1503,1506,1510,1510,1506,1508,1515,1509,1507,1507,1508,1510,1510,1508,1504,1510,1508,1505,1513,1512,1510,1510,nan,nan,nan,nan,nan,
64004944,64005188,64005402,64005615,64005829,64006042,64006256,64006470,64006683,64006897,64007111,64007324,64007538,64007751,64007965,64008179,64008392,64008606,64008820,64009033,64009247,64009460,64009674,64009888,64010101,64010315,64010529,64010742,64010956,64011169,64011383,64011597,64011810,64012024,64012238,64012451,64012665,64012878,64013092,64013306,nan,nan,nan,nan,nan,
0,64020538,64030701,41,64686,45,
1573,1577,1581,1578,1583,1584,1581,1576,1575,1582,1582,1579,1584,1575,1569,1579,1578,1577,1575,1574,1579,1582,1577,1575,1581,1573,1576,1574,1569,1577,1576,1579,1579,1576,1577,1579,1579,1576,1579,1582,1579,nan,nan,nan,nan,
64022003,64022247,64022461,64022675,64022888,64023102,64023315,64023529,64023743,64023956,64024170,64024384,64024597,64024811,64025024,64025238,64025452,64025665,64025879,64026093,64026306,64026520,64026733,64026947,64027161,64027374,64027588,64027802,64028015,64028229,64028442,64028656,64028870,64029083,64029297,64029510,64029724,64029938,64030151,64030365,64030579,nan,nan,nan,nan,
1,64037872,64048035,40,99881,45,
2450,2485,2489,2499,2499,2496,2501,2499,2504,2501,2497,2495,2499,2499,2504,2499,2499,2499,2499,2495,2495,2509,2499,2497,2499,2498,2499,2499,2495,2495,2495,2497,2499,2498,2502,2504,2495,2498,2502,2498,nan,nan,nan,nan,nan,
64039551,64039795,64040009,64040222,64040436,64040649,64040863,64041077,64041290,64041504,64041718,64041931,64042145,64042358,64042572,64042786,64042999,64043213,64043427,64043640,64043854,64044067,64044281,64044495,64044708,64044922,64045135,64045349,64045563,64045776,64045990,64046204,64046417,64046631,64046844,64047058,64047272,64047485,64047699,64047913,nan,nan,nan,nan,nan,
2,64055145,64065308,41,113630,45,
2768,2767,2767,2771,2778,2775,2769,2772,2777,2777,2773,2770,2770,2770,2770,2768,2768,2769,2769,2767,2770,2775,2777,2767,2775,2767,2767,2772,2771,2773,2768,2770,2774,2772,2774,2770,2776,2773,2773,2776,2775,nan,nan,nan,nan,
64056610,64056854,64057068,64057281,64057495,64057709,64057922,64058136,64058350,64058563,64058777,64058990,64059204,64059418,64059631,64059845,64060059,64060272,64060486,64060699,64060913,64061127,64061340,64061554,64061768,64061981,64062195,64062408,64062622,64062836,64063049,64063263,64063477,64063690,64063904,64064117,64064331,64064545,64064758,64064972,64065186,nan,nan,nan,nan,
3,64072510,64082581,40,60536,45,
1551,1533,1527,1524,1519,1511,1515,1513,1516,1513,1506,1509,1508,1506,1507,1510,1510,1510,1514,1511,1504,1511,1508,1507,1511,1511,1513,1513,1511,1508,1514,1505,1506,1514,1512,1513,1516,1516,1514,1516,nan,nan,nan,nan,nan,
64074066,64074310,64074554,64074768,64074982,64075195,64075409,64075623,64075836,64076050,64076263,64076477,64076691,64076904,64077118,64077332,64077545,64077759,64077972,64078186,64078400,64078613,64078827,64079041,64079254,64079468,64079681,64079895,64080109,64080322,64080536,64080750,64080963,64081177,64081390,64081604,64081818,64082031,64082245,64082458,nan,nan,nan,nan,nan,
0,64089691,64099823,41,64518,45,
1569,1579,1574,1577,1572,1575,1579,1576,1571,1579,1576,1576,1579,1570,1571,1569,1569,1570,1566,1568,1571,1573,1571,1576,1574,1573,1576,1574,1574,1574,1569,1575,1584,1574,1571,1574,1570,1575,1574,1580,1571,nan,nan,nan,nan,
64091156,64091370,64091583,64091797,64092010,64092224,64092438,64092651,64092865,64093079,64093292,64093506,64093719,64093933,64094147,64094360,64094574,64094788,64095001,64095215,64095428,64095642,64095856,64096069,64096283,64096497,64096710,64096924,64097137,64097351,64097565,64097778,64097992,64098206,64098419,64098633,64098846,64099060,64099274,64099487,64099701,nan,nan,nan,nan,
1,64106995,64117157,40,100479,45,
2491,2501,2506,2507,2510,2507,2508,2511,2512,2510,2510,2511,2510,2510,2513,2512,2520,2515,2512,2511,2510,2513,2512,2513,2512,2512,2515,2512,2513,2512,2516,2515,2518,2517,2512,2512,2515,2522,2519,2522,nan,nan,nan,nan,nan,
64108673,64108917,64109131,64109344,64109558,64109772,64109985,64110199,64110413,64110626,64110840,64111053,64111267,64111481,64111694,64111908,64112122,64112335,64112549,64112762,64112976,64113190,64113403,64113617,64113831,64114044,64114258,64114471,64114685,64114899,64115112,64115326,64115540,64115753,64115967,64116180,64116394,64116608,64116821,64117035,nan,nan,nan,nan,nan,
2,64124268,64134460,40,111144,45,
2761,2772,2772,2778,2775,2775,2776,2775,2780,2775,2773,2781,2776,2776,2780,2777,2775,2781,2772,2781,2779,2781,2777,2776,2783,2782,2781,2781,2780,2781,2780,2783,2784,2779,2776,2783,2782,2786,2790,2789,nan,nan,nan,nan,nan,
64125977,64126221,64126434,64126648,64126862,64127075,64127289,64127502,64127716,64127930,64128143,64128357,64128571,64128784,64128998,64129211,64129425,64129639,64129852,64130066,64130280,64130493,64130707,64130920,64131134,64131348,64131561,64131775,64131989,64132202,64132416,64132629,64132843,64133057,64133270,64133484,64133698,64133911,64134125,64134338,nan,nan,nan,nan,nan,
3,64141571,64151733,40,60516,45,
1539,1523,1524,1518,1516,1511,1513,1510,1511,1510,1514,1511,1508,1508,1510,1510,1509,1510,1504,1505,1508,1507,1513,1510,1506,1507,1513,1511,1513,1516,1516,1513,1517,1516,1510,1508,1518,1513,1517,1520,nan,nan,nan,nan,nan,
64143280,64143494,64143707,64143921,64144135,64144348,64144562,64144775,64144989,64145203,64145416,64145630,64145844,64146057,64146271,64146484,64146698,64146912,64147125,64147339,64147552,64147766,64147980,64148193,64148407,64148621,64148834,64149048,64149261,64149475,64149689,64149902,64150116,64150330,64150543,64150757,64150970,64151184,64151398,64151611,nan,nan,nan,nan,nan,
0,64158844,64169006,41,64613,45,
1572,1571,1575,1572,1569,1577,1573,1576,1567,1568,1572,1576,1575,1582,1573,1580,1572,1582,1575,1575,1573,1578,1573,1573,1576,1582,1575,1569,1582,1582,1580,1578,1575,1579,1575,1579,1581,1583,1581,1582,1575,nan,nan,nan,nan,
64160339,64160553,64160767,64160980,64161194,64161407,64161621,64161835,64162048,64162262,64162476,64162689,64162903,64163116,64163330,64163544,64163757,64163971,64164185,64164398,64164612,64164825,64165039,64165253,64165466,64165680,64165894,64166107,64166321,64166534,64166748,64166962,64167175,64167389,64167603,64167816,64168030,64168243,64168457,64168671,64168884,nan,nan,nan,nan,
1,64176178,64186340,40,100984,45,
2503,2507,2517,2519,2521,2527,2522,2518,2521,2524,2526,2526,2525,2524,2528,2526,2523,2524,2522,2524,2522,2526,2524,2530,2524,2524,2531,2534,2529,2532,2530,2524,2530,2526,2524,2534,2529,2529,2529,2526,nan,nan,nan,nan,nan,
64177856,64178101,64178314,64178528,64178741,64178955,64179169,64179382,64179596,64179810,64180023,64180237,64180450,64180664,64180878,64181091,64181305,64181519,64181732,64181946,64182159,64182373,64182587,64182800,64183014,64183228,64183441,64183655,64183868,64184082,64184296,64184509,64184723,64184937,64185150,64185364,64185577,64185791,64186005,64186218,nan,nan,nan,nan,nan,
2,64193451,64203583,40,111561,45,
2766,2781,2784,2788,2788,2783,2789,2791,2783,2790,2782,2791,2791,2789,2789,2794,2789,2785,2784,2788,2786,2795,2789,2786,2792,2789,2788,2794,2791,2791,2797,2792,2791,2790,2790,2798,2797,2792,2794,2794,nan,nan,nan,nan,nan,
64195099,64195343,64195557,64195770,64195984,64196198,64196411,64196625,64196838,64197052,64197266,64197479,64197693,64197906,64198120,64198334,64198547,64198761,64198975,64199188,64199402,64199615,64199829,64200043,64200256,64200470,64200684,64200897,64201111,64201324,64201538,64201752,64201965,64202179,64202393,64202606,64202820,64203033,64203247,64203461,nan,nan,nan,nan,nan,
3,64210693,64220856,40,60611,45,
1539,1528,1529,1516,1512,1512,1512,1515,1516,1508,1513,1516,1511,1514,1515,1510,1513,1516,1512,1516,1512,1515,1517,1513,1515,1515,1516,1511,1512,1510,1513,1520,1513,1516,1517,1516,1516,1513,1513,1515,nan,nan,nan,nan,nan,
64212402,64212616,64212830,64213043,64213257,64213470,64213684,64213898,64214111,64214325,64214539,64214752,64214966,64215179,64215393,64215607,64215820,64216034,64216248,64216461,64216675,64216888,64217102,64217316,64217529,64217743,64217957,64218170,64218384,64218597,64218811,64219025,64219238,64219452,64219666,64219879,64220093,64220306,64220520,64220734,nan,nan,nan,nan,nan,
0,64227966,64238129,41,64727,45,
1570,1571,1574,1577,1569,1582,1575,1579,1574,1573,1576,1573,1573,1582,1576,1581,1580,1584,1579,1571,1581,1583,1581,1582,1583,1584,1579,1579,1584,1575,1579,1590,1579,1585,1582,1578,1580,1582,1584,1579,1579,nan,nan,nan,nan,
64229431,64229675,64229889,64230103,64230316,64230530,64230743,64230957,64231171,64231384,64231598,64231812,64232025,64232239,64232452,64232666,64232880,64233093,64233307,64233521,64233734,64233948,64234161,64234375,64234589,64234802,64235016,64235229,64235443,64235657,64235870,64236084,64236298,64236511,64236725,64236938,64237152,64237366,64237579,64237793,64238007,nan,nan,nan,nan,
1,64245300,64255493,40,101481,45,
2518,2516,2527,2531,2531,2536,2537,2530,2533,2534,2533,2531,2534,2537,2536,2543,2545,2541,2540,2541,2536,2542,2537,2538,2540,2546,2537,2542,2543,2540,2543,2543,2542,2540,2542,2540,2542,2537,2537,2540,nan,nan,nan,nan,nan,
64247040,64247253,64247467,64247681,64247894,64248108,64248322,64248535,64248749,64248962,64249176,64249390,64249603,64249817,64250031,64250244,64250458,64250671,64250885,64251099,64251312,64251526,64251740,64251953,64252167,64252380,64252594,64252808,64253021,64253235,64253448,64253662,64253876,64254089,64254303,64254517,64254730,64254944,64255157,64255371,nan,nan,nan,nan,nan,
2,64262604,64272766,40,111785,45,
2782,2786,2789,2791,2797,2791,2790,2794,2794,2794,2791,2791,2794,2800,2803,2795,2795,2799,2793,2800,2799,2789,2794,2797,2799,2798,2793,2800,2793,2794,2801,2797,2797,2800,2800,2792,2794,2791,2794,2794,nan,nan,nan,nan,nan,
64264313,64264526,64264740,64264954,64265167,64265381,64265594,64265808,64266022,64266235,64266449,64266663,64266876,64267090,64267303,64267517,64267731,64267944,64268158,64268372,64268585,64268799,64269012,64269226,64269440,64269653,64269867,64270081,64270294,64270508,64270721,64270935,64271149,64271362,64271576,64271790,64272003,64272217,64272430,64272644,nan,nan,nan,nan,nan,
3,64279877,64290009,40,60637,45,
1570,1530,1516,1516,1515,1517,1516,1517,1508,1513,1513,1510,1516,1513,1514,1513,1513,1517,1517,1515,1519,1514,1511,1514,1513,1515,1515,1510,1516,1513,1515,1517,1521,1510,1507,1512,1512,1518,1513,1513,nan,nan,nan,nan,nan,
64281525,64281769,64281982,64282196,64282410,64282623,64282837,64283051,64283264,64283478,64283691,64283905,64284119,64284332,64284546,64284760,64284973,64285187,64285400,64285614,64285828,64286041,64286255,64286469,64286682,64286896,64287109,64287323,64287537,64287750,64287964,64288177,64288391,64288605,64288818,64289032,64289246,64289459,64289673,64289886,nan,nan,nan,nan,nan,
0,64297119,64307281,41,64839,45,
1579,1575,1578,1577,1582,1575,1579,1582,1579,1582,1584,1584,1580,1584,1583,1584,1583,1588,1576,1583,1585,1586,1579,1585,1587,1584,1586,1587,1580,1584,1585,1583,1577,1582,1581,1581,1580,1581,1576,1582,1571,nan,nan,nan,nan,
64298584,64298828,64299042,64299255,64299469,64299683,64299896,64300110,64300323,64300537,64300751,64300964,64301178,64301392,64301605,64301819,64302032,64302246,64302460,64302673,64302887,64303101,64303314,64303528,64303741,64303955,64304169,64304382,64304596,64304810,64305023,64305237,64305450,64305664,64305878,64306091,64306305,64306519,64306732,64306946,64307159,nan,nan,nan,nan,
1,64314453,64324585,40,101692,45,
2515,2531,2531,2535,2539,2545,2547,2540,2540,2538,2540,2546,2548,2547,2540,2548,2542,2544,2542,2547,2554,2541,2548,2545,2546,2542,2543,2548,2545,2548,2551,2548,2548,2545,2536,2542,2536,2541,2540,2540,nan,nan,nan,nan,nan,
64316101,64316345,64316559,64316772,64316986,64317200,64317413,64317627,64317841,64318054,64318268,64318481,64318695,64318909,64319122,64319336,64319550,64319763,64319977,64320190,64320404,64320618,64320831,64321045,64321259,64321472,64321686,64321899,64322113,64322327,64322540,64322754,64322968,64323181,64323395,64323608,64323822,64324036,64324249,64324463,nan,nan,nan,nan,nan,
2,64331696,64341858,40,112011,45,
2793,2794,2792,2797,2802,2794,2798,2805,2802,2796,2805,2800,2800,2802,2801,2805,2805,2803,2802,2807,2803,2793,2805,2799,2800,2800,2803,2803,2794,2808,2802,2798,2803,2802,2799,2800,2792,2800,2802,2802,nan,nan,nan,nan,nan,
64333374,64333618,64333832,64334045,64334259,64334473,64334686,64334900,64335114,64335327,64335541,64335754,64335968,64336182,64336395,64336609,64336823,64337036,64337250,64337463,64337677,64337891,64338104,64338318,64338531,64338745,64338959,64339172,64339386,64339600,64339813,64340027,64340240,64340454,64340668,64340881,64341095,64341309,64341522,64341736,nan,nan,nan,nan,nan,
3,64348969,64359100,40,60651,45,
1573,1534,1530,1524,1519,1516,1516,1520,1516,1515,1516,1510,1518,1510,1513,1519,1510,1513,1517,1512,1513,1516,1514,1517,1512,1513,1514,1515,1509,1511,1510,1512,1510,1510,1511,1511,1517,1517,1507,1511,nan,nan,nan,nan,nan,
64350616,64350861,64351074,64351288,64351501,64351715,64351929,64352142,64352356,64352570,64352783,64352997,64353210,64353424,64353638,64353851,64354065,64354279,64354492,64354706,64354919,64355133,64355347,64355560,64355774,64355988,64356201,64356415,64356628,64356842,64357056,64357269,64357483,64357697,64357910,64358124,64358337,64358551,64358765,64358978,nan,nan,nan,nan,nan,
0,64366211,64376373,41,64869,45,
1583,1586,1589,1581,1583,1588,1584,1584,1584,1582,1579,1579,1582,1583,1586,1587,1587,1585,1587,1585,1584,1581,1583,1582,1582,1583,1576,1584,1582,1581,1581,1579,1582,1578,1579,1580,1579,1575,1581,1578,1575,nan,nan,nan,nan,
64367706,64367920,64368134,64368347,64368561,64368774,64368988,64369202,64369415,64369629,64369843,64370056,64370270,64370483,64370697,64370911,64371124,64371338,64371552,64371765,64371979,64372192,64372406,64372620,64372833,64373047,64373260,64373474,64373688,64373901,64374115,64374329,64374542,64374756,64374969,64375183,64375397,64375610,64375824,64376038,64376251,nan,nan,nan,nan,
1,64383545,64393738,40,101549,45,
2519,2527,2534,2534,2534,2542,2544,2542,2542,2542,2543,2542,2544,2545,2541,2542,2554,2537,2546,2545,2539,2540,2536,2539,2539,2536,2536,2538,2542,2535,2545,2530,2541,2540,2538,2537,2534,2540,2534,2531,nan,nan,nan,nan,nan,
64385284,64385498,64385712,64385925,64386139,64386353,64386566,64386780,64386993,64387207,64387421,64387634,64387848,64388062,64388275,64388489,64388702,64388916,64389130,64389343,64389557,64389771,64389984,64390198,64390411,64390625,64390839,64391052,64391266,64391479,64391693,64391907,64392120,64392334,64392548,64392761,64392975,64393188,64393402,64393616,nan,nan,nan,nan,nan,
2,64400848,64410980,40,111843,45,
2791,2801,2800,2795,2801,2797,2794,2802,2799,2801,2797,2800,2800,2797,2794,2802,2799,2797,2796,2800,2801,2799,2796,2800,2800,2794,2801,2796,2788,2788,2793,2794,2794,2792,2791,2796,2789,2794,2786,2788,nan,nan,nan,nan,nan,
64402527,64402740,64402954,64403168,64403381,64403595,64403809,64404022,64404236,64404449,64404663,64404877,64405090,64405304,64405518,64405731,64405945,64406158,64406372,64406586,64406799,64407013,64407227,64407440,64407654,64407867,64408081,64408295,64408508,64408722,64408936,64409149,64409363,64409576,64409790,64410004,64410217,64410431,64410645,64410858,nan,nan,nan,nan,nan,
3,64418091,64428253,40,60576,45,
1583,1530,1528,1526,1515,1519,1513,1515,1513,1512,1523,1513,1516,1514,1515,1511,1514,1508,1515,1511,1513,1510,1515,1503,1510,1515,1505,1513,1505,1509,1511,1499,1509,1515,1509,1508,1511,1510,1509,1503,nan,nan,nan,nan,nan,
64419769,64420013,64420227,64420441,64420654,64420868,64421082,64421295,64421509,64421722,64421936,64422150,64422363,64422577,64422791,64423004,64423218,64423431,64423645,64423859,64424072,64424286,64424500,64424713,64424927,64425140,64425354,64425568,64425781,64425995,64426208,64426422,64426636,64426849,64427063,64427277,64427490,64427704,64427917,64428131,nan,nan,nan,nan,nan,
0,64435364,64445526,41,64840,45,
1576,1584,1585,1584,1581,1587,1586,1589,1584,1587,1581,1584,1586,1581,1586,1578,1580,1581,1579,1579,1581,1579,1581,1581,1582,1583,1579,1575,1582,1579,1581,1573,1583,1576,1577,1582,1581,1581,1581,1582,1583,nan,nan,nan,nan,
64436829,64437073,64437286,64437500,64437714,64437927,64438141,64438354,64438568,64438782,64438995,64439209,64439423,64439636,64439850,64440063,64440277,64440491,64440704,64440918,64441132,64441345,64441559,64441772,64441986,64442200,64442413,64442627,64442841,64443054,64443268,64443481,64443695,64443909,64444122,64444336,64444550,64444763,64444977,64445190,64445404,nan,nan,nan,nan,
1,64452698,64462860,40,101593,45,
2520,2530,2534,2542,2540,2546,2547,2547,2537,2541,2538,2540,2538,2540,2547,2542,2542,2539,2540,2540,2542,2538,2542,2536,2542,2540,2541,2543,2542,2548,2538,2544,2544,2540,2536,2542,2536,2536,2538,2535,nan,nan,nan,nan,nan,
64454407,64454620,64454834,64455048,64455261,64455475,64455688,64455902,64456116,64456329,64456543,64456757,64456970,64457184,64457397,64457611,64457825,64458038,64458252,64458466,64458679,64458893,64459106,64459320,64459534,64459747,64459961,64460175,64460388,64460602,64460815,64461029,64461243,64461456,64461670,64461884,64462097,64462311,64462524,64462738,nan,nan,nan,nan,nan,
2,64469971,64480103,40,111880,45,
2795,2799,2797,2800,2800,2800,2800,2794,2802,2791,2800,2800,2802,2802,2796,2803,2794,2797,2794,2794,2794,2800,2797,2792,2791,2800,2799,2797,2791,2789,2792,2798,2800,2801,2792,2797,2799,2794,2797,2800,nan,nan,nan,nan,nan,
64471649,64471863,64472076,64472290,64472504,64472717,64472931,64473145,64473358,64473572,64473785,64473999,64474213,64474426,64474640,64474854,64475067,64475281,64475494,64475708,64475922,64476135,64476349,64476563,64476776,64476990,64477203,64477417,64477631,64477844,64478058,64478271,64478485,64478699,64478912,64479126,64479340,64479553,64479767,64479980,nan,nan,nan,nan,nan,
3,64487213,64497345,40,60494,45,
1546,1535,1524,1518,1519,1516,1512,1516,1515,1517,1508,1514,1505,1514,1508,1512,1514,1508,1514,1513,1504,1508,1513,1510,1504,1510,1508,1510,1511,1510,1506,1509,1508,1511,1503,1499,1513,1505,1511,1513,nan,nan,nan,nan,nan,
64488892,64489105,64489319,64489532,64489746,64489960,64490173,64490387,64490601,64490814,64491028,64491241,64491455,64491669,64491882,64492096,64492310,64492523,64492737,64492950,64493164,64493378,64493591,64493805,64494019,64494232,64494446,64494659,64494873,64495087,64495300,64495514,64495728,64495941,64496155,64496368,64496582,64496796,64497009,64497223,nan,nan,nan,nan,nan,
0,64504456,64514618,41,64772,45,
1584,1583,1583,1579,1580,1575,1582,1582,1582,1584,1579,1582,1583,1583,1580,1577,1580,1573,1579,1584,1582,1579,1579,1576,1582,1582,1582,1579,1580,1579,1579,1574,1580,1575,1575,1583,1573,1579,1579,1579,1582,nan,nan,nan,nan,
64505951,64506165,64506378,64506592,64506805,64507019,64507233,64507446,64507660,64507874,64508087,64508301,64508514,64508728,64508942,64509155,64509369,64509583,64509796,64510010,64510223,64510437,64510651,64510864,64511078,64511292,64511505,64511719,64511932,64512146,64512360,64512573,64512787,64513000,64513214,64513428,64513641,64513855,64514069,64514282,64514496,nan,nan,nan,nan,
1,64521790,64531921,40,101520,45,
2496,2528,2530,2537,2541,2543,2550,2543,2543,2539,2537,2536,2539,2542,2542,2540,2537,2542,2536,2533,2538,2537,2535,2536,2541,2540,2535,2538,2542,2543,2529,2543,2542,2540,2540,2540,2540,2542,2540,2545,nan,nan,nan,nan,nan,
64523438,64523682,64523895,64524109,64524323,64524536,64524750,64524963,64525177,64525391,64525604,64525818,64526031,64526245,64526459,64526672,64526886,64527100,64527313,64527527,64527740,64527954,64528168,64528381,64528595,64528809,64529022,64529236,64529449,64529663,64529877,64530090,64530304,64530518,64530731,64530945,64531158,64531372,64531586,64531799,nan,nan,nan,nan,nan,
2,64539032,64549072,40,111744,45,
2772,2786,2799,2786,2798,2792,2792,2796,2794,2793,2799,2795,2800,2794,2794,2794,2791,2792,2791,2794,2793,2794,2791,2789,2795,2786,2799,2794,2795,2794,2791,2793,2800,2799,2800,2794,2800,2799,2794,2792,nan,nan,nan,nan,nan,
64540375,64540802,64541046,64541260,64541473,64541687,64541901,64542114,64542328,64542542,64542755,64542969,64543182,64543396,64543610,64543823,64544037,64544250,64544464,64544678,64544891,64545105,64545319,64545532,64545746,64545959,64546173,64546387,64546600,64546814,64547028,64547241,64547455,64547668,64547882,64548096,64548309,64548523,64548737,64548950,nan,nan,nan,nan,nan,
3,64556183,64566315,40,60498,45,
1541,1532,1524,1519,1516,1510,1509,1511,1513,1507,1513,1507,1506,1509,1511,1510,1511,1513,1511,1513,1513,1508,1514,1512,1509,1510,1514,1505,1504,1513,1509,1511,1511,1516,1512,1511,1508,1510,1513,1509,nan,nan,nan,nan,nan,
64557831,64558075,64558289,64558502,64558716,64558929,64559143,64559357,64559570,64559784,64559998,64560211,64560425,64560638,64560852,64561066,64561279,64561493,64561707,64561920,64562134,64562347,64562561,64562775,64562988,64563202,64563416,64563629,64563843,64564056,64564270,64564484,64564697,64564911,64565125,64565338,64565552,64565765,64565979,64566193,nan,nan,nan,nan,nan,
0,64573425,64583588,41,64810,45,
1576,1582,1581,1583,1575,1583,1580,1582,1583,1580,1578,1582,1574,1576,1580,1584,1582,1573,1579,1579,1582,1582,1580,1582,1579,1575,1584,1575,1582,1578,1581,1585,1582,1585,1588,1584,1586,1575,1585,1584,1584,nan,nan,nan,nan,
64574890,64575134,64575348,64575562,64575775,64575989,64576202,64576416,64576630,64576843,64577057,64577271,64577484,64577698,64577911,64578125,64578339,64578552,64578766,64578979,64579193,64579407,64579620,64579834,64580048,64580261,64580475,64580688,64580902,64581116,64581329,64581543,64581757,64581970,64582184,64582397,64582611,64582825,64583038,64583252,64583466,nan,nan,nan,nan,
1,64590759,64600800,40,101221,45,
2485,2517,2524,2533,2528,2530,2524,2530,2529,2534,2528,2527,2538,2531,2529,2533,2527,2540,2537,2524,2534,2530,2530,2530,2529,2535,2533,2534,2537,2534,2540,2533,2527,2530,2542,2530,2537,2538,2540,2530,nan,nan,nan,nan,nan,
64592133,64592529,64592773,64592987,64593201,64593414,64593628,64593842,64594055,64594269,64594482,64594696,64594910,64595123,64595337,64595551,64595764,64595978,64596191,64596405,64596619,64596832,64597046,64597260,64597473,64597687,64597900,64598114,64598328,64598541,64598755,64598969,64599182,64599396,64599609,64599823,64600037,64600250,64600464,64600677,nan,nan,nan,nan,nan,
2,64607910,64618042,40,111683,45,
2774,2786,2789,2792,2793,2791,2794,2794,2788,2793,2787,2782,2791,2794,2788,2790,2789,2792,2792,2797,2782,2797,2794,2795,2793,2794,2794,2794,2792,2794,2793,2793,2791,2793,2801,2794,2796,2799,2801,2797,nan,nan,nan,nan,nan,
64609558,64609802,64610016,64610229,64610443,64610657,64610870,64611084,64611298,64611511,64611725,64611938,64612152,64612366,64612579,64612793,64613007,64613220,64613434,64613647,64613861,64614075,64614288,64614502,64614716,64614929,64615143,64615356,64615570,64615784,64615997,64616211,64616425,64616638,64616852,64617065,64617279,64617493,64617706,64617920,nan,nan,nan,nan,nan,
3,64625153,64635284,40,60563,45,
1573,1524,1532,1516,1518,1516,1515,1511,1513,1510,1510,1510,1508,1513,1510,1507,1507,1502,1511,1505,1508,1508,1511,1513,1511,1512,1514,1510,1511,1514,1514,1515,1514,1524,1510,1513,1508,1513,1510,1519,nan,nan,nan,nan,nan,
64626801,64627045,64627258,64627472,64627686,64627899,64628113,64628326,64628540,64628754,64628967,64629181,64629395,64629608,64629822,64630035,64630249,64630463,64630676,64630890,64631104,64631317,64631531,64631744,64631958,64632172,64632385,64632599,64632813,64633026,64633240,64633453,64633667,64633881,64634094,64634308,64634521,64634735,64634949,64635162,nan,nan,nan,nan,nan,
0,64642395,64652557,41,64909,45,
1576,1578,1580,1582,1582,1584,1585,1579,1578,1579,1584,1581,1582,1578,1584,1582,1583,1583,1587,1581,1578,1583,1586,1585,1588,1583,1582,1589,1581,1584,1582,1586,1585,1583,1587,1587,1588,1584,1592,1584,1584,nan,nan,nan,nan,
64643860,64644104,64644318,64644531,64644745,64644958,64645172,64645386,64645599,64645813,64646027,64646240,64646454,64646667,64646881,64647095,64647308,64647522,64647736,64647949,64648163,64648376,64648590,64648804,64649017,64649231,64649445,64649658,64649872,64650085,64650299,64650513,64650726,64650940,64651154,64651367,64651581,64651794,64652008,64652222,64652435,nan,nan,nan,nan,
1,64659729,64669891,40,101049,45,
2499,2508,2519,2518,2524,2517,2523,2522,2524,2523,2531,2524,2528,2526,2520,2529,2529,2524,2528,2529,2531,2529,2526,2530,2524,2529,2530,2529,2534,2535,2535,2534,2526,2532,2528,2530,2527,2535,2530,2530,nan,nan,nan,nan,nan,
64661438,64661652,64661865,64662079,64662292,64662506,64662720,64662933,64663147,64663361,64663574,64663788,64664001,64664215,64664429,64664642,64664856,64665070,64665283,64665497,64665710,64665924,64666138,64666351,64666565,64666779,64666992,64667206,64667419,64667633,64667847,64668060,64668274,64668488,64668701,64668915,64669128,64669342,64669556,64669769,nan,nan,nan,nan,nan,
2,64677002,64687103,40,111721,45,
2762,2778,2786,2791,2791,2791,2791,2791,2791,2793,2793,2791,2794,2794,2798,2791,2794,2786,2795,2795,2794,2800,2800,2800,2797,2793,2797,2794,2799,2794,2802,2795,2794,2797,2794,2794,2792,2796,2800,2793,nan,nan,nan,nan,nan,
64678375,64678833,64679077,64679291,64679504,64679718,64679932,64680145,64680359,64680573,64680786,64681000,64681213,64681427,64681641,64681854,64682068,64682281,64682495,64682709,64682922,64683136,64683350,64683563,64683777,64683990,64684204,64684418,64684631,64684845,64685059,64685272,64685486,64685699,64685913,64686127,64686340,64686554,64686768,64686981,nan,nan,nan,nan,nan,
3,64694214,64704346,40,60589,45,
1565,1522,1524,1513,1515,1510,1515,1508,1508,1508,1510,1512,1504,1517,1515,1513,1511,1513,1510,1511,1513,1512,1514,1511,1515,1512,1511,1516,1513,1514,1515,1516,1514,1515,1516,1519,1516,1519,1510,1514,nan,nan,nan,nan,nan,
64695862,64696106,64696320,64696533,64696747,64696960,64697174,64697388,64697601,64697815,64698029,64698242,64698456,64698669,64698883,64699097,64699310,64699524,64699738,64699951,64700165,64700378,64700592,64700806,64701019,64701233,64701447,64701660,64701874,64702087,64702301,64702515,64702728,64702942,64703156,64703369,64703583,64703796,64704010,64704224,nan,nan,nan,nan,nan,
0,64711456,64721619,41,65006,45,
1580,1573,1581,1581,1573,1585,1583,1589,1586,1584,1584,1584,1590,1579,1588,1584,1583,1589,1587,1590,1582,1587,1587,1585,1593,1586,1590,1587,1586,1592,1584,1587,1589,1587,1585,1587,1587,1590,1589,1587,1586,nan,nan,nan,nan,
64712921,64713165,64713379,64713593,64713806,64714020,64714233,64714447,64714661,64714874,64715088,64715302,64715515,64715729,64715942,64716156,64716370,64716583,64716797,64717010,64717224,64717438,64717651,64717865,64718079,64718292,64718506,64718719,64718933,64719147,64719360,64719574,64719788,64720001,64720215,64720428,64720642,64720856,64721069,64721283,64721497,nan,nan,nan,nan,
1,64728821,64739014,40,101086,45,
2501,2514,2518,2523,2526,2526,2521,2527,2533,2524,2524,2529,2524,2529,2534,2529,2530,2524,2529,2529,2530,2531,2529,2527,2534,2528,2529,2534,2527,2530,2530,2529,2534,2524,2531,2526,2529,2530,2531,2529,nan,nan,nan,nan,nan,
64730560,64730774,64730988,64731201,64731415,64731628,64731842,64732056,64732269,64732483,64732697,64732910,64733124,64733337,64733551,64733765,64733978,64734192,64734406,64734619,64734833,64735046,64735260,64735474,64735687,64735901,64736115,64736328,64736542,64736755,64736969,64737183,64737396,64737610,64737823,64738037,64738251,64738464,64738678,64738892,nan,nan,nan,nan,nan,
2,64746124,64756287,40,111709,45,
