19958,1366,1292,1271,1369,65095,124174,146922,65142
19866,1366,1298,1278,1368,65095,124174,146922,65142
19866,1371,1293,1285,1367,65095,124174,146922,65142
20233,1367,1300,1270,1369,65095,124174,146922,65142
2,65142
20233,1368,1296,1273,1369,65095,124174,146922,65142
19866,1368,1303,1269,1377,65095,124174,146922,65142
19866,1370,1296,1280,1366,65095,124174,146922,65142
20233,1375,1300,1260,1369,65095,124174,146922,65142
19866,1369,1301,1288,1371,65095,124174,146922,65142
19866,1379,1297,1284,1367,65095,124174,146922,65142
20233,1367,1308,1283,1369,65095,124174,146922,65142
19866,1368,1302,1309,1369,65095,124174,146922,65142
19866,1370,1302,1285,1369,65095,124174,146922,65142
20233,1367,1301,1292,1370,65095,124174,146922,65142
19866,1369,1302,1290,1368,65095,124174,146922,65142
20233,1368,1309,1285,1369,65095,124174,146922,65142
19866,1369,1305,1292,1369,65095,124174,146922,65142
19866,1370,1296,1284,1364,65095,124174,146922,65142
20233,1366,1304,119927,1369,1307,1309,1363,65189,123281,146687,65236
20080,1376,1309,1300,1369,65189,123281,146687,65236
20050,1379,1307,1308,1369,65189,123281,146687,65236
20050,1377,1306,1305,1370,65189,123281,146687,65236
20050,1369,1317,1321,1369,65189,123281,146687,65236
20050,1369,1312,1306,1369,65189,123281,146687,65236
19683,1367,1313,1307,1370,65189,123281,146687,65236
20050,1368,1312,1297,1369,65189,123281,146687,65236
20050,1370,1316,1300,1368,65189,123281,146687,65236
20050,1369,1304,1293,1366,65189,123281,146687,65236
20050,1369,1303,1303,1367,65189,123281,146687,65236
20050,1368,1298,1303,1369,65189,123281,146687,65236
20050,1370,1312,1316,1369,65189,123281,146687,65236
19683,1368,1306,1306,1369,65189,123281,146687,65236
20050,1368,1309,1304,1368,65189,123281,146687,65236
20050,1367,1302,1293,1378,65189,123281,146687,65236
20050,1367,1314,1291,1378,65189,123281,146687,65236
20050,1370,1306,1286,1378,65189,123281,146687,65236
20050,1367,1309,1294,1366,65189,123281,146687,65236
20050,1377,1301,1284,1369,65189,123281,146687,65236
20050,1376,1308,1298,1370,65189,123281,146687,65236
19683,1366,1297,1293,1366,65189,123281,146687,65236
20050,1367,1308,1312,1368,65189,123281,146687,65236
20050,1369,1304,1296,1369,65189,123281,146687,65236
20050,1367,1315,1298,1367,65189,123281,146687,65236
20050,1370,1309,1287,1370,65189,123281,146687,65236
20050,1370,1312,1284,1368,65189,123281,146687,65236
20050,1366,1292,1279,1368,65189,123281,146687,65236
20050,1366,1309,1297,1366,65189,123281,146687,65236
19683,1370,1295,1294,1367,65189,123281,146687,65236
20050,1370,1312,1305,1364,65189,123281,146687,65236
20050,1365,1303,1291,1370,65189,123281,146687,65236
20050,1369,1312,1293,1369,65189,123281,146687,65236
20050,1369,1305,1283,1377,65189,123281,146687,65236
20050,1369,1308,1280,1377,65189,123281,146687,65236
20050,1368,1296,1279,1377,65189,123281,146687,65236
19683,1366,1306,1288,1369,65189,123281,146687,65236
20050,1378,1292,1280,1370,65189,123281,146687,65236
20050,1378,1306,1286,1366,65189,123281,146687,65236
20050,1368,1294,1288,1366,65189,123281,146687,65236
20050,1368,1313,1297,1371,65189,123281,146687,65236
20050,1371,1306,1285,1369,65189,123281,146687,65236
20050,1370,1308,1286,1371,65189,123281,146687,65236
20050,1370,1308,1281,1368,65189,123281,146687,65236
19683,1369,1308,1285,1368,65189,123281,146687,65236
20050,1367,1307,1290,1368,65189,123281,146687,65236
20050,1366,1311,1299,1371,65189,123281,146687,65236
20050,1369,1310,1311,1371,65189,123281,146687,65236
20050,1371,1318,1307,1366,65189,123281,146687,65236
20050,1369,1314,1297,1369,65189,123281,146687,65236
20050,1368,1316,1290,1370,65189,123281,146687,65236
19683,1369,1315,1289,1379,65189,123281,146687,65236
20050,1367,1310,1285,1378,65189,123281,146687,65236
20050,1368,1308,1287,1366,65189,123281,146687,65236
20050,1369,1307,1293,1369,65189,123281,146687,65236
20050,1381,1305,1293,1367,65189,123281,146687,65236
20050,1377,1310,1292,1368,65189,123281,146687,65236
20050,1367,1304,1299,1369,65189,123281,146687,65236
20050,1368,1313,1302,1366,65189,123281,146687,65236
19683,1364,1315,1302,1368,65189,123281,146687,65236
20050,1366,1309,1288,1368,65189,123281,146687,65236
20050,1366,1316,1284,1366,65189,123281,146687,65236
20050,1366,1304,1281,1370,65189,123281,146687,65236
20050,1368,1310,1293,1370,65189,123281,146687,65236
20050,1369,1305,1291,1367,65189,123281,146687,65236
20050,1368,1314,1302,1367,65189,123281,146687,65236
19683,1369,1312,1294,1367,65189,123281,146687,65236
20050,1367,1314,1296,1370,65189,123281,146687,65236
20050,1368,1307,1281,1370,65189,123281,146687,65236
20050,1366,1317,1275,1377,65189,123281,146687,65236
20050,1367,1304,1275,1375,65189,123281,146687,65236
20050,1369,1310,1287,1369,65189,123281,146687,65236
20050,1369,1302,1287,1368,65189,123281,146687,65236
20050,1375,1317,1292,1368,65189,123281,146687,65236
19683,1365,1311,1280,1368,65189,123281,146687,65236
20050,1367,1305,1293,1368,65189,123281,146687,65236
20050,1366,1310,1289,1371,65189,123281,146687,65236
20050,1366,1321,1288,1367,65189,123281,146687,65236
20050,1367,1310,1275,1368,65189,123281,146687,65236
20050,1369,1312,1275,1369,65189,123281,146687,65236
20050,1368,1301,1276,1370,65189,123281,146687,65236
19683,1368,1316,1286,1368,65189,123281,146687,65236
20050,1366,1302,1283,1366,65189,123281,146687,65236
20050,1364,1318,1296,1367,65189,123281,146687,65236
20050,1365,1305,1280,1367,65189,123281,146687,65236
20050,1365,1317,1281,1368,65189,123281,146687,65236
20050,1365,1305,1272,1377,65189,123281,146687,65236
20050,1367,1313,1274,1374,65189,123281,146687,65236
20050,1365,1305,1283,1376,65189,123281,146687,65236
19683,1369,1322,1295,1369,65189,123281,146687,65236
20050,1376,1306,1294,1364,65189,123281,146687,65236
20050,1377,1320,1295,1364,65189,123281,146687,65236
20050,1369,1312,1296,1365,65189,123281,146687,65236
20050,1365,1317,1298,1367,65189,123281,146687,65236
20050,1365,1319,1293,1367,65189,123281,146687,65236
20050,1364,1318,1294,1368,65189,123281,146687,65236
19683,1366,1323,1290,1368,65189,123281,146687,65236
20050,1367,1316,1288,1369,65189,123281,146687,65236
20050,1367,1314,1286,1367,65189,123281,146687,65236
20050,1367,1308,1293,1363,65189,123281,146687,65236
20050,1365,1307,1303,1367,65189,123281,146687,65236
20050,1365,1319,1305,1367,65189,123281,146687,65236
20050,1364,1314,1296,1367,65189,123281,146687,65236
20050,1365,1312,1288,1365,65189,123281,146687,65236
19683,1366,1313,1288,1375,65189,123281,146687,65236
20050,1364,1314,1284,1373,65189,123281,146687,65236
20050,1367,1307,1283,1366,65189,123281,146687,65236
20050,1367,1303,1287,1364,65189,123281,146687,65236
20050,1372,1305,1296,1364,65189,123281,146687,65236
20050,1374,1310,1291,1364,65189,123281,146687,65236
20050,1365,1310,1294,1365,65189,123281,146687,65236
19683,1364,1301,1286,1365,65189,123281,146687,65236
20050,1362,1312,1288,1364,65189,123281,146687,65236
20050,1363,1304,1278,1365,65189,123281,146687,65236
20050,1364,1317,1278,1367,65189,123281,146687,65236
20050,1367,1302,1273,1363,65189,123281,146687,65236
20050,1364,1303,1283,1362,65189,123281,146687,65236
20050,1364,1296,1284,1365,65189,123281,146687,65236
20050,1364,1311,1296,1363,65189,123281,146687,65236
19683,1367,1307,1288,1366,65189,123281,146687,65236
20050,1362,1310,1287,1366,65189,123281,146687,65236
20050,1366,1302,1279,1366,65189,123281,146687,65236
20050,1364,1311,1271,1375,65189,123281,146687,65236
20050,1365,1299,1269,1372,65189,123281,146687,65236
20050,1365,1309,1278,1364,65189,123281,146687,65236
20050,1363,1294,1277,1365,65189,123281,146687,65236
20050,1371,1302,1288,1365,65189,123281,146687,65236
19683,1365,1300,1271,1365,65189,123281,146687,65236
20050,1364,1302,1284,1361,65189,123281,146687,65236
20050,1361,1293,1276,1363,65189,123281,146687,65236
20050,1365,1313,1291,1366,65189,123281,146687,65236
20050,1363,1305,1284,1367,65189,123281,146687,65236
20050,1363,1309,1286,1365,65189,123281,146687,65236
20050,1362,1298,1286,1364,65189,123281,146687,65236
19683,1361,1308,1298,1366,65189,123281,146687,65236
20050,1363,1301,1298,1363,65189,123281,146687,65236
20050,1365,1316,1308,1364,65189,123281,146687,65236
20050,1364,1308,1299,1364,65189,123281,146687,65236
20050,1361,1319,1298,1362,65189,123281,146687,65236
20050,1365,1312,1286,1365,65189,123281,146687,65236
20050,1364,1315,1287,1372,65189,123281,146687,65236
20050,1363,1302,1287,1370,65189,123281,146687,65236
19683,1363,1313,1298,1363,65189,123281,146687,65236
20050,1363,1309,1295,1366,65189,123281,146687,65236
20050,1376,1314,1308,1365,65189,123281,146687,65236
20050,1363,1309,1302,1362,65189,123281,146687,65236
20050,1363,1310,1304,1361,65189,123281,146687,65236
20080,1362,1313,1298,1364,65189,123234,147298,65236
20050,1364,1313,1308,1363,65189,123234,147298,65236
19683,1364,1315,1306,1364,65189,123234,147298,65236
20050,1365,1306,1306,1367,65189,123234,147298,65236
20050,1363,1309,1309,1364,65189,123234,147298,65236
20050,1366,1308,1308,1366,65189,123234,147298,65236
20050,1363,1303,1316,1365,65189,123234,147298,65236
20050,1363,1308,1318,1362,65189,123234,147298,65236
20050,1361,1310,1314,1363,65189,123234,147298,65236
19683,1362,1311,1307,1363,65189,123234,147298,65236
20050,1364,1303,1313,1364,65189,123234,147298,65236
20050,1364,1308,1302,1363,65189,123234,147298,65236
20050,1364,1319,1297,1364,65189,123234,147298,65236
20050,1364,1307,1299,1364,65189,123234,147298,65236
20050,1365,1313,1310,1362,65189,123234,147298,65236
20050,1365,1301,1313,1363,65189,123234,147298,65236
20050,1363,1315,1322,1364,65189,123234,147298,65236
19683,1364,1312,1309,1363,65189,123234,147298,65236
20050,1367,1317,1309,1364,65189,123234,147298,65236
20050,1365,1305,1299,1365,65189,123234,147298,65236
20050,1361,1316,1294,1364,65189,123234,147298,65236
20050,1362,1305,1294,1366,65189,123234,147298,65236
20050,1363,1312,1311,1366,65189,123234,147298,65236
20050,1361,1306,1318,1365,65189,123234,147298,65236
19683,1364,1320,1334,1362,65189,123234,147298,65236
20050,1364,1320,1322,1363,65189,123234,147298,65236
20050,1365,1326,1327,1364,65189,123234,147298,65236
20050,1364,1311,1320,1365,65189,123234,147298,65236
20050,1363,1316,1324,1365,65189,123234,147298,65236
20050,1364,1319,1312,1364,65189,123234,147298,65236
20050,1362,1320,1312,1362,65189,123234,147298,65236
20050,1366,1306,1315,1363,65189,123234,147298,65236
19683,1365,1318,1328,1365,65189,123234,147298,65236
20050,1365,1306,1325,1364,65189,123234,147298,65236
20050,1364,1320,1338,1366,65189,123234,147298,65236
20050,1367,1312,1328,1365,65189,123234,147298,65236
20050,1364,1324,1330,1362,65189,123234,147298,65236
20050,1364,1318,1316,1364,65189,123234,147298,65236
20050,1363,1322,1319,1366,65189,123234,147298,65236
19683,1362,1315,1319,1367,65189,123234,147298,65236
20050,1366,1320,1328,1364,65189,123234,147298,65236
20050,1363,1315,1325,1365,65189,123234,147298,65236
20050,1364,1319,1338,1365,65189,123234,147298,65236
20050,1363,1312,1328,1363,65189,123234,147298,65236
20050,1364,1318,1329,1365,65189,123234,147298,65236
20050,1363,1318,1317,1363,65189,123234,147298,65236
20050,1372,1311,1313,1366,65189,123234,147298,65236
19683,1362,1318,1315,1366,65189,123234,147298,65236
20050,1365,1315,1317,1367,65189,123234,147298,65236
20050,1365,1309,1323,1365,65189,123234,147298,65236
20050,1365,1307,1319,1363,65189,123234,147298,65236
20050,1362,1306,1332,1366,65189,123234,147298,65236
20050,1365,1313,1335,1365,65189,123234,147298,65236
20050,1364,1314,1324,1365,65189,123234,147298,65236
19683,1364,1314,1312,1363,65189,123234,147298,65236
20050,1365,1312,1314,1365,65189,123234,147298,65236
20050,1362,1308,1311,1365,65189,123234,147298,65236
20050,1366,1306,1318,1364,65189,123234,147298,65236
20050,1363,1309,1317,1364,65189,123234,147298,65236
20050,1365,1310,1329,1365,65189,123234,147298,65236
20050,1365,1313,1335,1373,65189,123234,147298,65236
20050,1362,1317,1333,1363,65189,123234,147298,65236
19683,1366,1318,1327,1361,65189,123234,147298,65236
20050,1365,1314,1332,1362,65189,123234,147298,65236
20050,1375,1309,1322,1363,65189,123234,147298,65236
20050,1364,1327,1321,1367,65189,123234,147298,65236
20050,1364,1314,1324,1364,65189,123234,147298,65236
20050,1363,1318,1335,1364,65189,123234,147298,65236
20050,1363,1306,1336,1364,65189,123234,147298,65236
19683,1365,1319,1351,1363,65189,123234,147298,65236
20050,1365,1317,1338,1367,65189,123234,147298,65236
20050,1366,1327,1335,1365,65189,123234,147298,65236
20050,1366,1311,1322,1366,65189,123234,147298,65236
20050,1366,1321,1327,1369,65189,123234,147298,65236
20050,1366,1312,1324,1364,65189,123234,147298,65236
20050,1364,1317,1336,1362,65189,123234,147298,65236
20050,1364,1309,1339,1365,65189,123234,147298,65236
19683,1367,1315,1348,1367,65189,123234,147298,65236
20050,1364,1313,1336,1373,65189,123234,147298,65236
20050,1364,1321,1342,1364,65189,123234,147298,65236
20050,1365,1310,1327,1364,65189,123234,147298,65236
20050,1371,1315,1327,1365,65189,123234,147298,65236
20050,1374,1307,1320,1367,65189,123234,147298,65236
20050,1364,1314,1321,1366,65189,123234,147298,65236
19683,1363,1301,1322,1366,65189,123234,147298,65236
20050,1362,1316,1333,1366,65189,123234,147298,65236
20050,1368,1309,1330,1366,65189,123234,147298,65236
20050,1367,1320,1342,1365,65189,123234,147298,65236
20050,1366,1310,1331,1366,65189,123234,147298,65236
20050,1363,1317,1331,1365,65189,123234,147298,65236
20050,1363,1318,1319,1367,65189,123234,147298,65236
20050,1367,1312,1322,1364,65189,123234,147298,65236
19683,1364,1301,1320,1365,65189,123234,147298,65236
20050,1365,1315,1328,1365,65189,123234,147298,65236
20050,1366,1309,1326,1365,65189,123234,147298,65236
20050,1366,1321,1336,1362,65189,123234,147298,65236
20050,1362,1309,1326,1370,65189,123234,147298,65236
20050,1364,1313,1330,1366,65189,123234,147298,65236
20050,1365,1316,1324,1364,65189,123234,147298,65236
20050,1374,1312,1321,1365,65189,123234,147298,65236
19683,1375,1311,1329,1364,65189,123234,147298,65236
20050,1364,1317,1331,1366,65189,123234,147298,65236
20050,1365,1316,1340,1365,65189,123234,147298,65236
20050,1364,1317,1342,1364,65189,123234,147298,65236
20050,1365,1314,1351,1361,65189,123234,147298,65236
20050,1364,1321,1349,1362,65189,123234,147298,65236
20050,1363,1320,1343,1365,65189,123234,147298,65236
19683,1363,1322,1335,1363,65189,123234,147298,65236
20050,1364,1323,1333,1366,65189,123234,147298,65236
20050,1364,1312,1329,1365,65189,123234,147298,65236
20050,1365,1315,1336,1365,65189,123234,147298,65236
20050,1363,1315,1336,1361,65189,123234,147298,65236
20050,1365,1317,1350,1364,65189,123234,147298,65236
20050,1364,1317,1346,1373,65189,123234,147298,65236
20050,1365,1318,1344,1370,65189,123234,147298,65236
19683,1363,1321,1335,1365,65189,123234,147298,65236
20050,1362,1326,1333,1365,65189,123234,147298,65236
20050,1374,1305,1316,1365,65189,123234,147298,65236
20050,1370,1321,1325,1367,65189,123234,147298,65236
20050,1365,1309,1326,1366,65189,123234,147298,65236
20050,1364,1317,1335,1367,65189,123234,147298,65236
20050,1363,1301,1334,1365,65189,123234,147298,65236
19683,1362,1314,1344,1361,65189,123234,147298,65236
20050,1362,1314,1332,1362,65189,123234,147298,65236
20050,1363,1323,1336,1365,65189,123234,147298,65236
20050,1366,1310,1323,1365,65189,123234,147298,65236
20050,1364,1316,1320,1364,65189,123234,147298,65236
20050,1364,1300,1316,1364,65189,123234,147298,65236
20050,1364,1313,1328,1361,65189,123234,147298,65236
20050,1364,1297,1327,1362,65189,123234,147298,65236
19683,1365,1311,1334,1364,65189,123234,147298,65236
20050,1361,1304,1327,1376,65189,123234,147298,65236
20050,1363,1317,1332,1377,65189,123234,147298,65236
20050,1366,1307,1316,1363,65189,123234,147298,65236
20050,1372,1314,1315,1362,65189,123234,147298,65236
20050,1373,1301,1302,1365,65189,123234,147298,65236
20050,1371,1312,1312,1367,65189,123234,147298,65236
19683,1362,1300,1313,1365,65189,123234,147298,65236
20050,1365,1312,1321,1364,65189,123234,147298,65236
20050,1362,1302,1319,1362,65189,123234,147298,65236
20050,1362,1314,1331,1363,65189,123234,147298,65236
20050,1364,1306,1323,1366,65189,123234,147298,65236
20050,1364,1316,1322,1366,65189,123234,147298,65236
20050,1364,1314,1318,1365,65189,123234,147298,65236
20050,1363,1317,1322,1364,65189,123234,147298,65236
19683,1364,1306,1326,1363,65189,123234,147298,65236
20050,1367,1317,1333,1366,65189,123234,147298,65236
20050,1365,1310,1340,1361,65189,123234,147298,65236
20050,1365,1321,1342,1362,65189,123234,147298,65236
20050,1363,1309,1335,1374,65189,123234,147298,65236
20080,1365,1319,1343,1370,65377,122999,146311,65424
20050,1370,1314,1308,1368,65377,122999,146311,65424
19683,1369,1310,1297,1370,65377,122999,146311,65424
20050,1369,1314,1298,1368,65377,122999,146311,65424
20050,1369,1305,1291,1371,65377,122999,146311,65424
20050,1370,1303,1305,1368,65377,122999,146311,65424
20050,1371,1301,1301,1366,65377,122999,146311,65424
20050,1367,1308,1314,1370,65377,122999,146311,65424
20050,1370,1309,1306,1377,65377,122999,146311,65424
19683,1368,1307,1310,1378,65377,122999,146311,65424
20050,1368,1306,1297,1379,65377,122999,146311,65424
20050,1370,1312,1297,1371,65377,122999,146311,65424
20050,1379,1300,1288,1368,65377,122999,146311,65424
20050,1378,1306,1288,1370,65377,122999,146311,65424
20050,1378,1296,1284,1368,65377,122999,146311,65424
20050,1366,1309,1299,1367,65377,122999,146311,65424
20050,1370,1292,1301,1368,65377,122999,146311,65424
19683,1369,1305,1308,1370,65377,122999,146311,65424
20050,1370,1303,1297,1371,65377,122999,146311,65424
20050,1367,1305,1297,1368,65377,122999,146311,65424
20050,1369,1298,1286,1372,65377,122999,146311,65424
20050,1371,1307,1282,1371,65377,122999,146311,65424
20050,1372,1288,1284,1369,65377,122999,146311,65424
20050,1367,1302,1293,1368,65377,122999,146311,65424
19683,1369,1292,1292,1369,65377,122999,146311,65424
20050,1369,1301,1306,1371,65377,122999,146311,65424
20050,1370,1297,1293,1379,65377,122999,146311,65424
20050,1367,1303,1291,1380,65377,122999,146311,65424
20050,1367,1295,1281,1377,65377,122999,146311,65424
20050,1369,1306,1282,1369,65377,122999,146311,65424
20050,1377,1294,1275,1368,65377,122999,146311,65424
20050,1374,1304,1278,1368,65377,122999,146311,65424
19683,1379,1290,1279,1370,65377,122999,146311,65424
20050,1368,1301,1288,1370,65377,122999,146311,65424
20050,1368,1295,1298,1370,65377,122999,146311,65424
20050,1368,1302,1293,1370,65377,122999,146311,65424
20050,1370,1294,1285,1368,65377,122999,146311,65424
20050,1369,1299,1286,1368,65377,122999,146311,65424
20050,1370,1302,1282,1367,65377,122999,146311,65424
19683,1368,1304,1285,1369,65377,122999,146311,65424
20050,1369,1292,1289,1370,65377,122999,146311,65424
20050,1370,1299,1299,1370,65377,122999,146311,65424
20050,1368,1297,1310,1369,65377,122999,146311,65424
20050,1370,1308,1305,1368,65377,122999,146311,65424
20050,1369,1295,1299,1374,65377,122999,146311,65424
20050,1370,1300,1296,1376,65377,122999,146311,65424
20050,1369,1303,1290,1378,65377,122999,146311,65424
19683,1372,1302,1287,1369,65377,122999,146311,65424
20050,1377,1293,1279,1368,65377,122999,146311,65424
20050,1376,1294,1287,1371,65377,122999,146311,65424
20050,1379,1298,1293,1370,65377,122999,146311,65424
20050,1371,1298,1296,1368,65377,122999,146311,65424
20050,1369,1305,1304,1369,65377,122999,146311,65424
20050,1368,1303,1310,1369,65377,122999,146311,65424
19683,1368,1302,1299,1370,65377,122999,146311,65424
20050,1369,1302,1285,1371,65377,122999,146311,65424
20050,1372,1303,1286,1371,65377,122999,146311,65424
20050,1367,1296,1277,1369,65377,122999,146311,65424
20050,1371,1298,1290,1370,65377,122999,146311,65424
20050,1372,1299,1293,1370,65377,122999,146311,65424
20050,1369,1306,1301,1366,65377,122999,146311,65424
20050,1370,1301,1287,1375,65377,122999,146311,65424
19683,1368,1305,1296,1378,65377,122999,146311,65424
20050,1371,1302,1282,1376,65377,122999,146311,65424
20050,1366,1307,1281,1378,65377,122999,146311,65424
20050,1372,1297,1273,1368,65377,122999,146311,65424
20050,1377,1297,1277,1370,65377,122999,146311,65424
20050,1376,1286,1273,1369,65377,122999,146311,65424
20050,1378,1300,1284,1370,65377,122999,146311,65424
20050,1368,1288,1278,1367,65377,122999,146311,65424
19683,1367,1305,1294,1367,65377,122999,146311,65424
20050,1366,1295,1284,1370,65377,122999,146311,65424
20050,1368,1301,1285,1369,65377,122999,146311,65424
20050,1371,1291,1271,1365,65377,122999,146311,65424
20050,1370,1303,1271,1370,65377,122999,146311,65424
20050,1369,1288,1271,1372,65377,122999,146311,65424
20050,1370,1302,1280,1366,65377,122999,146311,65424
19683,1369,1288,1280,1366,65377,122999,146311,65424
20050,1370,1299,1291,1367,65377,122999,146311,65424
20050,1370,1296,1281,1376,65377,122999,146311,65424
20050,1369,1305,1278,1380,65377,122999,146311,65424
20050,1367,1297,1267,1378,65377,122999,146311,65424
20050,1367,1300,1265,1370,65377,122999,146311,65424
20050,1368,1289,1262,1367,65377,122999,146311,65424
20050,1375,1299,1269,1369,65377,122999,146311,65424
19683,1380,1288,1261,1368,65377,122999,146311,65424
20050,1375,1293,1273,1368,65377,122999,146311,65424
20050,1367,1297,1281,1366,65377,122999,146311,65424
20050,1369,1306,1295,1370,65377,122999,146311,65424
20050,1369,1295,1284,1368,65377,122999,146311,65424
20050,1370,1302,1288,1369,65377,122999,146311,65424
20050,1369,1304,1278,1372,65377,122999,146311,65424
19683,1370,1304,1272,1370,65377,122999,146311,65424
20050,1372,1290,1275,1369,65377,122999,146311,65424
20050,1373,1295,1287,1369,65377,122999,146311,65424
20050,1370,1295,1291,1369,65377,122999,146311,65424
20050,1369,1304,1293,1373,65377,122999,146311,65424
20050,1370,1301,1285,1377,65377,122999,146311,65424
20050,1370,1300,1283,1375,65377,122999,146311,65424
20050,1367,1299,1272,1375,65377,122999,146311,65424
19683,1367,1296,1271,1367,65377,122999,146311,65424
20050,1381,1293,1274,1369,65377,122999,146311,65424
20050,1380,1289,1268,1366,65377,122999,146311,65424
20050,1375,1290,1281,1369,65377,122999,146311,65424
20050,1366,1289,1281,1371,65377,122999,146311,65424
20050,1366,1304,1285,1368,65377,122999,146311,65424
20050,1369,1302,1285,1369,65377,122999,146311,65424
19683,1371,1298,1283,1369,65377,122999,146311,65424
20050,1366,1297,1272,1367,65377,122999,146311,65424
20050,1369,1304,1272,1368,65377,122999,146311,65424
20050,1371,1291,1265,1370,65377,122999,146311,65424
20050,1369,1290,1277,1369,65377,122999,146311,65424
20050,1368,1280,1272,1368,65377,122999,146311,65424
20050,1369,1300,1287,1369,65377,122999,146311,65424
20050,1370,1294,1281,1370,65377,122999,146311,65424
19683,1369,1295,1279,1381,65377,122999,146311,65424
20050,1367,1295,1270,1379,65377,122999,146311,65424
20050,1368,1300,1263,1379,65377,122999,146311,65424
20050,1366,1288,1260,1368,65377,122999,146311,65424
20050,1381,1293,1268,1368,65377,122999,146311,65424
20050,1375,1283,1256,1367,65377,122999,146311,65424
20050,1374,1294,1272,1368,65377,122999,146311,65424
19683,1370,1283,1264,1368,65377,122999,146311,65424
20050,1369,1296,1283,1371,65377,122999,146311,65424
20050,1368,1287,1269,1368,65377,122999,146311,65424
20050,1368,1297,1271,1370,65377,122999,146311,65424
20050,1366,1289,1256,1369,65377,122999,146311,65424
20050,1368,1301,1252,1370,65377,122999,146311,65424
20050,1368,1280,1253,1369,65377,122999,146311,65424
20050,1368,1291,1265,1367,65377,122999,146311,65424
19683,1370,1279,1265,1367,65377,122999,146311,65424
20050,1370,1293,1275,1366,65377,122999,146311,65424
20050,1370,1290,1264,1370,65377,122999,146311,65424
20050,1367,1296,1263,1378,65377,122999,146311,65424
20050,1368,1285,1250,1378,65377,122999,146311,65424
20050,1367,1292,1250,1376,65377,122999,146311,65424
20050,1370,1284,1246,1368,65377,122999,146311,65424
19683,1377,1291,1257,1367,65377,122999,146311,65424
20050,1377,1280,1249,1368,65377,122999,146311,65424
20050,1377,1283,1262,1369,65377,122999,146311,65424
20050,1367,1279,1274,1368,65377,122999,146311,65424
20050,1368,1298,1283,1369,65377,122999,146311,65424
20050,1367,1290,1274,1367,65377,122999,146311,65424
20050,1370,1301,1277,1372,65377,122999,146311,65424
20050,1370,1299,1266,1370,65377,122999,146311,65424
19683,1368,1298,1264,1368,65377,122999,146311,65424
20050,1367,1282,1262,1368,65377,122999,146311,65424
20050,1368,1288,1273,1369,65377,122999,146311,65424
20050,1366,1290,1281,1367,65377,122999,146311,65424
20050,1368,1297,1285,1371,65377,122999,146311,65424
20080,1366,1284,1272,1369,65236,123516,147345,65330
20050,1362,1300,1299,1369,65236,123516,147345,65330
19683,1364,1301,1301,1369,65236,123516,147345,65330
20050,1361,1301,1289,1368,65236,123516,147345,65330
20050,1363,1309,1288,1369,65236,123516,147345,65330
20050,1365,1300,1287,1367,65236,123516,147345,65330
20050,1362,1298,1298,1365,65236,123516,147345,65330
20050,1364,1294,1297,1367,65236,123516,147345,65330
20050,1362,1301,1306,1369,65236,123516,147345,65330
19683,1363,1297,1295,1370,65236,123516,147345,65330
20050,1364,1301,1300,1367,65236,123516,147345,65330
20050,1367,1292,1288,1379,65236,123516,147345,65330
20050,1364,1304,1281,1377,65236,123516,147345,65330
20050,1361,1291,1278,1373,65236,123516,147345,65330
20050,1362,1294,1291,1373,65236,123516,147345,65330
20050,1373,1289,1289,1369,65236,123516,147345,65330
20050,1371,1296,1295,1369,65236,123516,147345,65330
19683,1363,1294,1287,1365,65236,123516,147345,65330
20050,1362,1294,1299,1366,65236,123516,147345,65330
20050,1362,1296,1291,1372,65236,123516,147345,65330
20050,1364,1305,1288,1372,65236,123516,147345,65330
20050,1363,1296,1279,1368,65236,123516,147345,65330
20050,1363,1298,1277,1370,65236,123516,147345,65330
20050,1364,1286,1274,1370,65236,123516,147345,65330
19683,1365,1298,1290,1372,65236,123516,147345,65330
20050,1365,1287,1286,1366,65236,123516,147345,65330
20050,1364,1302,1299,1370,65236,123516,147345,65330
20050,1364,1293,1286,1371,65236,123516,147345,65330
20050,1364,1304,1287,1370,65236,123516,147345,65330
20050,1363,1290,1271,1374,65236,123516,147345,65330
20050,1363,1297,1274,1377,65236,123516,147345,65330
20050,1364,1291,1273,1377,65236,123516,147345,65330
19958,1363,1304,1290,1369,65236,123516,147345,65330
20050,1363,1297,1285,1367,65236,123516,147345,65330
19958,1364,1297,1276,1367,65236,123516,147345,65330
20050,1364,1303,1285,1369,65236,123516,147345,65330
19958,1364,1294,1298,1369,65236,123516,147345,65330
20050,1365,1305,1311,1370,65236,123516,147345,65330
19683,1362,1304,1301,1368,65236,123516,147345,65330
20050,1364,1308,1299,1369,65236,123516,147345,65330
20050,1366,1299,1286,1371,65236,123516,147345,65330
20050,1364,1306,1287,1370,65236,123516,147345,65330
20050,1360,1296,1281,1376,65236,123516,147345,65330
20050,1364,1303,1295,1369,65236,123516,147345,65330
20050,1364,1291,1300,1367,65236,123516,147345,65330
19958,1361,1304,1296,1369,65236,123516,147345,65330
20050,1363,1306,1288,1372,65236,123516,147345,65330
19958,1361,1296,1284,1369,65236,123516,147345,65330
20050,1364,1307,1299,1367,65236,123516,147345,65330
19958,1365,1308,1311,1371,65236,123516,147345,65330
20050,1364,1307,1302,1368,65236,123516,147345,65330
19683,1364,1305,1292,1368,65236,123516,147345,65330
20050,1362,1309,1290,1367,65236,123516,147345,65330
20050,1364,1302,1285,1372,65236,123516,147345,65330
20050,1365,1303,1296,1368,65236,123516,147345,65330
20050,1363,1305,1293,1369,65236,123516,147345,65330
20050,1362,1312,1307,1369,65236,123516,147345,65330
20050,1361,1309,1307,1376,65236,123516,147345,65330
19958,1364,1308,1282,1366,65236,123516,147345,65330
20050,1362,1305,1287,1370,65236,123516,147345,65330
19958,1361,1296,1296,1367,65236,123516,147345,65330
20050,1363,1311,1307,1370,65236,123516,147345,65330
19683,1364,1307,1299,1369,65236,123516,147345,65330
20050,1363,1308,1298,1365,65236,123516,147345,65330
20050,1359,1304,1288,1369,65236,123516,147345,65330
20050,1363,1313,1283,1379,65236,123516,147345,65330
20050,1365,1303,1283,1377,65236,123516,147345,65330
20050,1367,1308,1292,1369,65236,123516,147345,65330
20050,1362,1296,1289,1369,65236,123516,147345,65330
19958,1364,1307,1296,1378,65236,123516,147345,65330
20050,1366,1309,1297,1375,65236,123516,147345,65330
19958,1364,1296,1279,1368,65236,123516,147345,65330
20050,1364,1308,1291,1371,65236,123516,147345,65330
19958,1363,1309,1304,1368,65236,123516,147345,65330
20050,1365,1307,1295,1371,65236,123516,147345,65330
19683,1365,1307,1284,1372,65236,123516,147345,65330
20050,1365,1304,1280,1367,65236,123516,147345,65330
20050,1364,1299,1281,1368,65236,123516,147345,65330
20050,1364,1305,1290,1367,65236,123516,147345,65330
20050,1362,1306,1299,1368,65236,123516,147345,65330
20050,1366,1309,1313,1368,65236,123516,147345,65330
20050,1366,1309,1315,1378,65236,123516,147345,65330
19958,1366,1315,1299,1371,65236,123516,147345,65330
20050,1363,1316,1299,1379,65236,123516,147345,65330
19958,1365,1305,1303,1369,65236,123516,147345,65330
20050,1362,1313,1318,1370,65236,123516,147345,65330
20050,1365,1315,1309,1369,65236,123516,147345,65330
19683,1364,1317,1312,1380,65236,123516,147345,65330
20050,1364,1313,1302,1379,65236,123516,147345,65330
20050,1365,1319,1297,1379,65236,123516,147345,65330
20050,1362,1309,1294,1367,65236,123516,147345,65330
20050,1365,1314,1303,1373,65236,123516,147345,65330
20050,1371,1308,1298,1369,65236,123516,147345,65330
19958,1364,1310,1312,1376,65236,123516,147345,65330
20050,1364,1314,1310,1376,65236,123516,147345,65330
19958,1364,1311,1298,1371,65236,123516,147345,65330
20050,1367,1318,1311,1368,65236,123516,147345,65330
19958,1362,1321,1319,1368,65236,123516,147345,65330
20050,1365,1318,1311,1367,65236,123516,147345,65330
20050,1364,1320,1304,1368,65236,123516,147345,65330
19683,1365,1317,1304,1381,65236,123516,147345,65330
20050,1364,1315,1301,1381,65236,123516,147345,65330
20050,1365,1312,1307,1367,65236,123516,147345,65330
20050,1361,1308,1304,1370,65236,123516,147345,65330
20050,1366,1309,1317,1370,65236,123516,147345,65330
20050,1374,1310,1308,1366,65236,123516,147345,65330
19958,1363,1305,1298,1375,65236,123516,147345,65330
20050,1363,1312,1299,1375,65236,123516,147345,65330
19958,1365,1309,1307,1367,65236,123516,147345,65330
20050,1363,1311,1317,1367,65236,123516,147345,65330
19958,1364,1315,1308,1371,65236,123516,147345,65330
20050,1363,1311,1297,1370,65236,123516,147345,65330
20050,1363,1311,1298,1371,65236,123516,147345,65330
19683,1365,1302,1297,1368,65236,123516,147345,65330
20050,1362,1315,1305,1367,65236,123516,147345,65330
20050,1364,1305,1303,1369,65236,123516,147345,65330
20050,1363,1311,1312,1369,65236,123516,147345,65330
20050,1363,1304,1304,1378,65236,123516,147345,65330
20050,1365,1313,1306,1368,65236,123516,147345,65330
19958,1364,1302,1286,1376,65236,123516,147345,65330
20050,1368,1311,1298,1369,65236,123516,147345,65330
19958,1367,1311,1310,1367,65236,123516,147345,65330
20050,1364,1310,1299,1368,65236,123516,147345,65330
20050,1361,1310,1291,1377,65236,123516,147345,65330
19683,1362,1307,1292,1381,65236,123516,147345,65330
20050,1364,1308,1287,1378,65236,123516,147345,65330
20050,1364,1307,1289,1370,65236,123516,147345,65330
20050,1373,1305,1300,1369,65236,123516,147345,65330
20050,1374,1311,1310,1368,65236,123516,147345,65330
20050,1371,1320,1313,1368,65236,123516,147345,65330
19958,1365,1310,1310,1378,65236,123516,147345,65330
20050,1365,1320,1309,1369,65236,123516,147345,65330
19958,1366,1312,1311,1370,65236,123516,147345,65330
20050,1366,1318,1325,1367,65236,123516,147345,65330
19958,1364,1324,1316,1373,65236,123516,147345,65330
20050,1363,1318,1304,1368,65236,123516,147345,65330
20050,1365,1318,1306,1377,65236,123516,147345,65330
20050,1365,1305,1308,1378,65236,123516,147345,65330
19683,1367,1321,1316,1371,65236,123516,147345,65330
20050,1370,1310,1318,1371,65236,123516,147345,65330
20050,1363,1317,1326,1369,65236,123516,147345,65330
20050,1366,1311,1321,1369,65236,123516,147345,65330
20050,1365,1321,1327,1370,65236,123516,147345,65330
19958,1362,1314,1305,1376,65236,123516,147345,65330
20050,1364,1312,1315,1369,65236,123516,147345,65330
19958,1365,1319,1327,1372,65236,123516,147345,65330
20050,1362,1311,1323,1378,65236,123516,147345,65330
19958,1363,1325,1306,1373,65236,123516,147345,65330
20050,1364,1304,1301,1371,65236,123516,147345,65330
20050,1364,1317,1316,1369,65236,123516,147345,65330
19714,1365,1307,1309,1363,65377,123704,147627,65236
20050,1369,1320,1325,1364,65377,123704,147627,65236
20050,1366,1319,1323,1364,65377,123704,147627,65236
20050,1367,1330,1329,1364,65377,123704,147627,65236
20050,1369,1316,1321,1366,65377,123704,147627,65236
20050,1368,1321,1320,1364,65377,123704,147627,65236
20050,1371,1322,1307,1364,65377,123704,147627,65236
20050,1367,1322,1310,1367,65377,123704,147627,65236
19683,1369,1313,1311,1364,65377,123704,147627,65236
20050,1369,1323,1320,1363,65377,123704,147627,65236
20050,1368,1322,1327,1362,65377,123704,147627,65236
20050,1371,1328,1328,1363,65377,123704,147627,65236
20050,1368,1318,1320,1373,65377,123704,147627,65236
19958,1369,1333,1308,1365,65377,123704,147627,65236
20050,1368,1319,1302,1366,65377,123704,147627,65236
20050,1369,1323,1314,1367,65377,123704,147627,65236
20050,1370,1310,1318,1365,65377,123704,147627,65236
19683,1370,1322,1325,1365,65377,123704,147627,65236
20050,1372,1319,1316,1366,65377,123704,147627,65236
20050,1369,1324,1320,1363,65377,123704,147627,65236
20050,1367,1314,1306,1363,65377,123704,147627,65236
20050,1374,1314,1313,1365,65377,123704,147627,65236
19958,1369,1312,1309,1366,65377,123704,147627,65236
20050,1377,1317,1327,1360,65377,123704,147627,65236
19958,1369,1324,1323,1374,65377,123704,147627,65236
20050,1369,1314,1317,1374,65377,123704,147627,65236
20050,1369,1325,1320,1372,65377,123704,147627,65236
20050,1370,1316,1318,1365,65377,123704,147627,65236
19683,1376,1325,1328,1362,65377,123704,147627,65236
20050,1379,1309,1320,1364,65377,123704,147627,65236
20050,1375,1316,1327,1363,65377,123704,147627,65236
20050,1368,1315,1341,1365,65377,123704,147627,65236
20050,1370,1323,1340,1364,65377,123704,147627,65236
19958,1377,1311,1308,1364,65377,123704,147627,65236
20050,1378,1317,1320,1364,65377,123704,147627,65236
19958,1371,1324,1339,1367,65377,123704,147627,65236
20050,1372,1316,1331,1364,65377,123704,147627,65236
19958,1367,1327,1318,1373,65377,123704,147627,65236
20050,1368,1322,1320,1372,65377,123704,147627,65236
20050,1373,1326,1327,1365,65377,123704,147627,65236
20050,1368,1313,1331,1363,65377,123704,147627,65236
20050,1375,1322,1340,1365,65377,123704,147627,65236
19683,1366,1317,1323,1363,65377,123704,147627,65236
20050,1369,1325,1332,1362,65377,123704,147627,65236
20050,1368,1315,1329,1363,65377,123704,147627,65236
20050,1370,1328,1331,1365,65377,123704,147627,65236
19958,1377,1315,1326,1365,65377,123704,147627,65236
20050,1382,1312,1322,1366,65377,123704,147627,65236
19958,1369,1323,1327,1374,65377,123704,147627,65236
20050,1367,1310,1315,1370,65377,123704,147627,65236
19958,1369,1314,1322,1364,65377,123704,147627,65236
20050,1370,1315,1320,1365,65377,123704,147627,65236
20050,1368,1319,1332,1363,65377,123704,147627,65236
20050,1369,1315,1331,1372,65377,123704,147627,65236
20050,1368,1317,1329,1362,65377,123704,147627,65236
19683,1367,1322,1319,1363,65377,123704,147627,65236
20050,1370,1320,1322,1366,65377,123704,147627,65236
20050,1378,1308,1313,1363,65377,123704,147627,65236
20050,1367,1324,1312,1364,65377,123704,147627,65236
19958,1378,1321,1331,1364,65377,123704,147627,65236
20050,1365,1312,1326,1362,65377,123704,147627,65236
19958,1368,1318,1310,1370,65377,123704,147627,65236
20050,1366,1306,1305,1369,65377,123704,147627,65236
20050,1368,1311,1313,1364,65377,123704,147627,65236
20050,1377,1299,1312,1365,65377,123704,147627,65236
20050,1376,1313,1316,1364,65377,123704,147627,65236
19683,1369,1296,1316,1363,65377,123704,147627,65236
20050,1368,1311,1329,1364,65377,123704,147627,65236
20050,1368,1306,1326,1364,65377,123704,147627,65236
20050,1368,1321,1331,1360,65377,123704,147627,65236
19958,1376,1312,1325,1363,65377,123704,147627,65236
20050,1377,1312,1334,1365,65377,123704,147627,65236
19958,1366,1320,1334,1363,65377,123704,147627,65236
20050,1369,1311,1327,1363,65377,123704,147627,65236
19958,1366,1312,1332,1363,65377,123704,147627,65236
20050,1369,1310,1328,1363,65377,123704,147627,65236
20050,1374,1308,1343,1365,65377,123704,147627,65236
20050,1377,1314,1340,1366,65377,123704,147627,65236
20050,1367,1315,1340,1363,65377,123704,147627,65236
19683,1366,1305,1329,1364,65377,123704,147627,65236
20050,1369,1315,1333,1363,65377,123704,147627,65236
20050,1367,1307,1327,1365,65377,123704,147627,65236
20050,1367,1318,1322,1366,65377,123704,147627,65236
19958,1376,1314,1337,1361,65377,123704,147627,65236
20050,1368,1299,1350,1366,65377,123704,147627,65236
19958,1367,1318,1330,1367,65377,123704,147627,65236
20050,1379,1305,1321,1364,65377,123704,147627,65236
20050,1376,1312,1318,1363,65377,123704,147627,65236
20050,1374,1301,1318,1365,65377,123704,147627,65236
20050,1368,1314,1329,1362,65377,123704,147627,65236
20050,1369,1301,1330,1364,65377,123704,147627,65236
19683,1371,1312,1338,1363,65377,123704,147627,65236
20050,1367,1302,1328,1364,65377,123704,147627,65236
20050,1370,1315,1327,1367,65377,123704,147627,65236
19958,1367,1304,1315,1365,65377,123704,147627,65236
20050,1368,1305,1326,1365,65377,123704,147627,65236
19958,1368,1312,1330,1367,65377,123704,147627,65236
20050,1368,1299,1319,1365,65377,123704,147627,65236
19958,1371,1306,1317,1364,65377,123704,147627,65236
20050,1370,1302,1316,1364,65377,123704,147627,65236
20050,1379,1304,1324,1362,65377,123704,147627,65236
20050,1375,1308,1318,1364,65377,123704,147627,65236
20050,1370,1307,1331,1365,65377,123704,147627,65236
20050,1369,1313,1324,1364,65377,123704,147627,65236
19683,1371,1308,1321,1363,65377,123704,147627,65236
20050,1367,1309,1310,1360,65377,123704,147627,65236
20050,1369,1316,1305,1367,65377,123704,147627,65236
19958,1369,1301,1316,1364,65377,123704,147627,65236
20050,1369,1304,1328,1364,65377,123704,147627,65236
19958,1366,1311,1311,1363,65377,123704,147627,65236
20050,1380,1305,1297,1367,65377,123704,147627,65236
19958,1370,1305,1314,1366,65377,123704,147627,65236
20050,1370,1313,1321,1365,65377,123704,147627,65236
20050,1370,1305,1312,1365,65377,123704,147627,65236
20050,1365,1310,1319,1362,65377,123704,147627,65236
20050,1371,1304,1310,1366,65377,123704,147627,65236
20050,1376,1313,1316,1364,65377,123704,147627,65236
19683,1366,1311,1317,1364,65377,123704,147627,65236
20050,1371,1313,1321,1364,65377,123704,147627,65236
20050,1369,1309,1322,1363,65377,123704,147627,65236
19958,1372,1309,1340,1365,65377,123704,147627,65236
20050,1368,1308,1328,1362,65377,123704,147627,65236
19958,1376,1313,1318,1362,65377,123704,147627,65236
20050,1378,1314,1318,1363,65377,123704,147627,65236
20050,1376,1311,1330,1363,65377,123704,147627,65236
20050,1368,1311,1328,1363,65377,123704,147627,65236
20050,1369,1316,1343,1361,65377,123704,147627,65236
20050,1369,1317,1334,1364,65377,123704,147627,65236
19683,1369,1320,1333,1366,65377,123704,147627,65236
20050,1369,1319,1320,1364,65377,123704,147627,65236
20050,1368,1322,1325,1366,65377,123704,147627,65236
19958,1369,1321,1332,1366,65377,123704,147627,65236
20050,1368,1311,1333,1363,65377,123704,147627,65236
19958,1370,1310,1333,1363,65377,123704,147627,65236
20050,1374,1313,1318,1366,65377,123704,147627,65236
19958,1377,1306,1331,1364,65377,123704,147627,65236
20050,1378,1317,1332,1364,65377,123704,147627,65236
20050,1369,1312,1334,1365,65377,123704,147627,65236
20050,1368,1320,1342,1363,65377,123704,147627,65236
20050,1367,1314,1328,1365,65377,123704,147627,65236
20050,1368,1313,1328,1365,65377,123704,147627,65236
19683,1370,1316,1324,1365,65377,123704,147627,65236
20050,1368,1316,1321,1364,65377,123704,147627,65236
20050,1370,1308,1319,1363,65377,123704,147627,65236
19958,1366,1315,1339,1365,65377,123704,147627,65236
20050,1367,1310,1332,1363,65377,123704,147627,65236
19958,1381,1306,1311,1363,65377,123704,147627,65236
20050,1377,1308,1315,1365,65377,123704,147627,65236
19958,1367,1311,1327,1374,65377,123704,147627,65236
20050,1367,1319,1332,1362,65377,123704,147627,65236
20080,1369,1307,1325,1368,65283,123422,146734,65424
20050,1369,1311,1306,1368,65283,123422,146734,65424
20050,1367,1308,1294,1369,65283,123422,146734,65424
20050,1366,1306,1293,1370,65283,123422,146734,65424
19683,1371,1297,1294,1367,65283,123422,146734,65424
20050,1369,1304,1301,1366,65283,123422,146734,65424
20050,1370,1299,1298,1370,65283,123422,146734,65424
20050,1368,1309,1309,1370,65283,123422,146734,65424
20050,1368,1302,1300,1376,65283,123422,146734,65424
20050,1369,1307,1302,1369,65283,123422,146734,65424
20050,1366,1308,1297,1371,65283,123422,146734,65424
20050,1378,1303,1296,1372,65283,123422,146734,65424
19683,1380,1314,1302,1369,65283,123422,146734,65424
20050,1371,1307,1310,1368,65283,123422,146734,65424
19958,1370,1311,1313,1367,65283,123422,146734,65424
20050,1369,1316,1324,1370,65283,123422,146734,65424
20050,1368,1302,1309,1371,65283,123422,146734,65424
20050,1366,1323,1322,1369,65283,123422,146734,65424
20050,1369,1309,1311,1367,65283,123422,146734,65424
20050,1370,1314,1307,1369,65283,123422,146734,65424
20050,1366,1307,1317,1369,65283,123422,146734,65424
19683,1373,1314,1322,1368,65283,123422,146734,65424
20050,1370,1301,1323,1372,65283,123422,146734,65424
19958,1367,1314,1323,1371,65283,123422,146734,65424
20050,1368,1319,1315,1371,65283,123422,146734,65424
19958,1380,1306,1314,1371,65283,123422,146734,65424
20050,1367,1312,1325,1367,65283,123422,146734,65424
20050,1371,1311,1335,1368,65283,123422,146734,65424
20050,1368,1321,1333,1368,65283,123422,146734,65424
20050,1368,1310,1323,1370,65283,123422,146734,65424
20050,1371,1314,1321,1371,65283,123422,146734,65424
20050,1370,1313,1309,1369,65283,123422,146734,65424
19683,1370,1315,1310,1371,65283,123422,146734,65424
20050,1368,1304,1307,1370,65283,123422,146734,65424
19958,1370,1314,1327,1369,65283,123422,146734,65424
20050,1369,1312,1317,1368,65283,123422,146734,65424
19958,1370,1313,1307,1369,65283,123422,146734,65424
20050,1368,1310,1306,1370,65283,123422,146734,65424
19958,1369,1305,1311,1368,65283,123422,146734,65424
20050,1369,1300,1317,1368,65283,123422,146734,65424
20050,1369,1304,1315,1368,65283,123422,146734,65424
20050,1368,1312,1312,1372,65283,123422,146734,65424
20050,1369,1302,1299,1370,65283,123422,146734,65424
20050,1368,1312,1299,1370,65283,123422,146734,65424
20050,1372,1295,1295,1370,65283,123422,146734,65424
19683,1370,1309,1312,1368,65283,123422,146734,65424
20050,1372,1296,1310,1370,65283,123422,146734,65424
19958,1369,1309,1309,1370,65283,123422,146734,65424
20050,1369,1309,1300,1371,65283,123422,146734,65424
19958,1370,1297,1299,1372,65283,123422,146734,65424
20050,1371,1307,1306,1368,65283,123422,146734,65424
19958,1369,1303,1297,1370,65283,123422,146734,65424
20050,1368,1302,1296,1368,65283,123422,146734,65424
20050,1368,1300,1297,1372,65283,123422,146734,65424
20050,1370,1314,1300,1372,65283,123422,146734,65424
20050,1369,1307,1302,1370,65283,123422,146734,65424
20050,1372,1314,1318,1369,65283,123422,146734,65424
20050,1368,1304,1316,1372,65283,123422,146734,65424
20050,1369,1316,1334,1368,65283,123422,146734,65424
19683,1369,1314,1323,1372,65283,123422,146734,65424
20324,1370,1315,1313,1368,65283,123422,146734,65424
19683,1368,1314,1311,1372,65283,123422,146734,65424
19958,1369,1307,1318,1370,65283,123422,146734,65424
20050,1369,1320,1335,1369,65283,123422,146734,65424
20050,1368,1313,1322,1370,65283,123422,146734,65424
20050,1370,1320,1322,1368,65283,123422,146734,65424
20050,1369,1312,1308,1369,65283,123422,146734,65424
20050,1371,1320,1308,1369,65283,123422,146734,65424
20050,1372,1302,1308,1371,65283,123422,146734,65424
20050,1367,1318,1319,1369,65283,123422,146734,65424
19683,1368,1301,1324,1367,65283,123422,146734,65424
20324,1370,1317,1323,1371,65283,123422,146734,65424
19683,1368,1317,1314,1368,65283,123422,146734,65424
20324,1367,1304,1309,1368,65283,123422,146734,65424
19683,1370,1314,1320,1367,65283,123422,146734,65424
20324,1369,1306,1313,1371,65283,123422,146734,65424
19683,1369,1313,1319,1368,65283,123422,146734,65424
20050,1367,1307,1307,1369,65283,123422,146734,65424
20050,1369,1317,1304,1370,65283,123422,146734,65424
20050,1369,1307,1301,1368,65283,123422,146734,65424
20050,1367,1307,1312,1372,65283,123422,146734,65424
20050,1370,1300,1310,1369,65283,123422,146734,65424
20050,1370,1311,1324,1369,65283,123422,146734,65424
19683,1369,1308,1313,1370,65283,123422,146734,65424
20324,1369,1311,1307,1369,65283,123422,146734,65424
19683,1369,1310,1301,1368,65283,123422,146734,65424
20324,1367,1290,1311,1371,65283,123422,146734,65424
19683,1369,1303,1321,1370,65283,123422,146734,65424
20324,1375,1294,1294,1369,65283,123422,146734,65424
19683,1368,1305,1300,1367,65283,123422,146734,65424
20050,1365,1305,1298,1368,65283,123422,146734,65424
20050,1368,1297,1307,1369,65283,123422,146734,65424
20050,1368,1298,1301,1368,65283,123422,146734,65424
20050,1367,1294,1316,1367,65283,123422,146734,65424
20050,1369,1302,1314,1373,65283,123422,146734,65424
20050,1368,1299,1302,1369,65283,123422,146734,65424
19683,1368,1300,1291,1368,65283,123422,146734,65424
20324,1369,1290,1292,1370,65283,123422,146734,65424
19683,1370,1301,1301,1368,65283,123422,146734,65424
20324,1367,1300,1303,1369,65283,123422,146734,65424
19683,1369,1305,1308,1370,65283,123422,146734,65424
20050,1369,1308,1304,1369,65283,123422,146734,65424
20050,1368,1315,1306,1368,65283,123422,146734,65424
20050,1366,1304,1307,1368,65283,123422,146734,65424
20050,1368,1304,1320,1368,65283,123422,146734,65424
20050,1368,1297,1316,1368,65283,123422,146734,65424
20050,1370,1309,1326,1366,65283,123422,146734,65424
20050,1369,1307,1317,1370,65283,123422,146734,65424
19683,1367,1306,1318,1371,65283,123422,146734,65424
20050,1369,1303,1309,1379,65283,123422,146734,65424
20050,1370,1313,1305,1377,65283,123422,146734,65424
20050,1370,1301,1301,1376,65283,123422,146734,65424
20050,1370,1304,1317,1370,65283,123422,146734,65424
20050,1376,1297,1303,1369,65283,123422,146734,65424
20050,1379,1312,1321,1368,65283,123422,146734,65424
19683,1376,1301,1312,1369,65283,123422,146734,65424
20050,1367,1315,1332,1368,65283,123422,146734,65424
20050,1367,1309,1322,1367,65283,123422,146734,65424
20050,1369,1317,1317,1365,65283,123422,146734,65424
20050,1367,1307,1308,1368,65283,123422,146734,65424
20050,1370,1313,1306,1370,65283,123422,146734,65424
20050,1367,1299,1304,1370,65283,123422,146734,65424
20050,1371,1313,1319,1371,65283,123422,146734,65424
19683,1369,1301,1316,1372,65283,123422,146734,65424
20050,1369,1313,1326,1368,65283,123422,146734,65424
20050,1368,1305,1318,1372,65283,123422,146734,65424
20050,1367,1314,1318,1372,65283,123422,146734,65424
20050,1368,1304,1303,1378,65283,123422,146734,65424
20050,1371,1307,1303,1376,65283,123422,146734,65424
20050,1370,1303,1305,1379,65283,123422,146734,65424
19683,1378,1308,1310,1369,65283,123422,146734,65424
20050,1380,1294,1303,1371,65283,123422,146734,65424
20050,1380,1310,1311,1367,65283,123422,146734,65424
20050,1372,1296,1312,1370,65283,123422,146734,65424
20050,1364,1313,1320,1371,65283,123422,146734,65424
20050,1371,1300,1315,1369,65283,123422,146734,65424
20050,1370,1308,1310,1367,65283,123422,146734,65424
20050,1366,1306,1299,1369,65283,123422,146734,65424
19683,1366,1307,1297,1370,65283,123422,146734,65424
20050,1373,1297,1294,1371,65283,123422,146734,65424
20050,1370,1302,1304,1366,65283,123422,146734,65424
20050,1366,1304,1315,1370,65283,123422,146734,65424
20050,1367,1313,1318,1368,65283,123422,146734,65424
20050,1369,1310,1312,1369,65283,123422,146734,65424
20050,1367,1309,1319,1380,65283,123422,146734,65424
19683,1367,1314,1312,1379,65283,123422,146734,65424
20050,1369,1311,1309,1379,65283,123422,146734,65424
20050,1367,1309,1311,1367,65283,123422,146734,65424
20050,1379,1308,1315,1369,65283,123422,146734,65424
20050,1379,1306,1317,1367,65283,123422,146734,65424
20080,1370,1298,1315,1369,65236,123516,146358,65330
20050,1364,1313,1321,1373,65236,123516,146358,65330
19683,1363,1310,1311,1371,65236,123516,146358,65330
20050,1364,1313,1309,1369,65236,123516,146358,65330
20050,1359,1306,1298,1371,65236,123516,146358,65330
20050,1366,1317,1292,1377,65236,123516,146358,65330
20050,1364,1306,1294,1378,65236,123516,146358,65330
20050,1364,1315,1308,1370,65236,123516,146358,65330
20050,1368,1302,1304,1368,65236,123516,146358,65330
20050,1373,1316,1311,1371,65236,123516,146358,65330
19683,1365,1312,1302,1368,65236,123516,146358,65330
20050,1364,1309,1308,1370,65236,123516,146358,65330
20050,1362,1312,1296,1368,65236,123516,146358,65330
20050,1362,1321,1302,1369,65236,123516,146358,65330
20050,1365,1312,1290,1367,65236,123516,146358,65330
20050,1364,1317,1292,1369,65236,123516,146358,65330
20050,1362,1304,1289,1368,65236,123516,146358,65330
19683,1363,1310,1298,1369,65236,123516,146358,65330
20050,1364,1299,1300,1371,65236,123516,146358,65330
20050,1363,1319,1310,1370,65236,123516,146358,65330
20050,1363,1308,1299,1367,65236,123516,146358,65330
20050,1362,1313,1296,1369,65236,123516,146358,65330
20050,1362,1301,1286,1369,65236,123516,146358,65330
20050,1363,1313,1287,1378,65236,123516,146358,65330
20050,1364,1302,1285,1377,65236,123516,146358,65330
19683,1365,1311,1294,1369,65236,123516,146358,65330
20050,1362,1297,1291,1369,65236,123516,146358,65330
20050,1373,1311,1297,1367,65236,123516,146358,65330
20050,1364,1304,1293,1365,65236,123516,146358,65330
20050,1362,1311,1294,1367,65236,123516,146358,65330
20050,1365,1309,1283,1370,65236,123516,146358,65330
20050,1366,1314,1293,1368,65236,123516,146358,65330
19683,1366,1316,1283,1367,65236,123516,146358,65330
20050,1362,1313,1284,1367,65236,123516,146358,65330
20050,1363,1313,1285,1366,65236,123516,146358,65330
20050,1363,1308,1300,1370,65236,123516,146358,65330
20050,1365,1313,1318,1369,65236,123516,146358,65330
20050,1365,1322,1315,1370,65236,123516,146358,65330
20050,1361,1314,1303,1366,65236,123516,146358,65330
20050,1364,1314,1296,1369,65236,123516,146358,65330
19683,1361,1316,1299,1379,65236,123516,146358,65330
20050,1365,1316,1292,1378,65236,123516,146358,65330
20050,1365,1314,1291,1369,65236,123516,146358,65330
20050,1366,1313,1300,1367,65236,123516,146358,65330
20050,1366,1312,1309,1370,65236,123516,146358,65330
20050,1374,1310,1302,1369,65236,123516,146358,65330
20050,1362,1317,1301,1370,65236,123516,146358,65330
20050,1364,1306,1295,1370,65236,123516,146358,65330
19683,1364,1317,1299,1369,65236,123516,146358,65330
20050,1362,1308,1292,1366,65236,123516,146358,65330
20050,1365,1323,1288,1368,65236,123516,146358,65330
20050,1363,1308,1289,1369,65236,123516,146358,65330
20050,1364,1313,1300,1370,65236,123516,146358,65330
20050,1365,1305,1299,1367,65236,123516,146358,65330
20050,1366,1316,1312,1369,65236,123516,146358,65330
19683,1366,1314,1298,1368,65236,123516,146358,65330
20050,1364,1317,1303,1370,65236,123516,146358,65330
20050,1363,1311,1287,1370,65236,123516,146358,65330
20050,1364,1321,1284,1378,65236,123516,146358,65330
20050,1363,1308,1281,1378,65236,123516,146358,65330
20050,1364,1312,1294,1370,65236,123516,146358,65330
20050,1364,1301,1292,1369,65236,123516,146358,65330
20050,1367,1314,1302,1367,65236,123516,146358,65330
19683,1364,1310,1286,1373,65236,123516,146358,65330
20050,1363,1315,1295,1368,65236,123516,146358,65330
20050,1363,1297,1282,1373,65236,123516,146358,65330
20050,1364,1315,1282,1370,65236,123516,146358,65330
20050,1365,1305,1278,1366,65236,123516,146358,65330
20050,1362,1314,1280,1370,65236,123516,146358,65330
20050,1363,1298,1277,1370,65236,123516,146358,65330
19683,1362,1312,1293,1373,65236,123516,146358,65330
20050,1365,1293,1288,1368,65236,123516,146358,65330
20050,1364,1313,1296,1370,65236,123516,146358,65330
20050,1364,1303,1288,1371,65236,123516,146358,65330
20050,1368,1314,1284,1370,65236,123516,146358,65330
20050,1362,1309,1271,1369,65236,123516,146358,65330
20050,1363,1311,1269,1379,65236,123516,146358,65330
20050,1365,1299,1274,1375,65236,123516,146358,65330
19683,1363,1314,1287,1367,65236,123516,146358,65330
20050,1365,1308,1292,1371,65236,123516,146358,65330
20050,1373,1318,1304,1367,65236,123516,146358,65330
20050,1363,1310,1301,1367,65236,123516,146358,65330
20050,1364,1317,1302,1372,65236,123516,146358,65330
20050,1366,1308,1290,1370,65236,123516,146358,65330
20050,1363,1316,1291,1366,65236,123516,146358,65330
19683,1363,1318,1290,1369,65236,123516,146358,65330
20050,1366,1317,1291,1370,65236,123516,146358,65330
20050,1362,1311,1291,1368,65236,123516,146358,65330
20050,1363,1310,1298,1368,65236,123516,146358,65330
20050,1365,1310,1310,1368,65236,123516,146358,65330
20050,1364,1310,1307,1368,65236,123516,146358,65330
20050,1364,1310,1299,1370,65236,123516,146358,65330
20050,1362,1313,1289,1369,65236,123516,146358,65330
19683,1362,1313,1291,1367,65236,123516,146358,65330
20050,1363,1303,1290,1379,65236,123516,146358,65330
20050,1365,1310,1296,1368,65236,123516,146358,65330
20050,1364,1306,1293,1369,65236,123516,146358,65330
20050,1364,1306,1301,1368,65236,123516,146358,65330
20050,1372,1306,1300,1370,65236,123516,146358,65330
20050,1364,1309,1297,1368,65236,123516,146358,65330
19683,1366,1300,1286,1368,65236,123516,146358,65330
20050,1360,1308,1285,1371,65236,123516,146358,65330
20050,1365,1299,1281,1368,65236,123516,146358,65330
20050,1363,1308,1275,1370,65236,123516,146358,65330
20050,1361,1299,1274,1371,65236,123516,146358,65330
20050,1364,1296,1285,1369,65236,123516,146358,65330
20050,1362,1287,1281,1370,65236,123516,146358,65330
20050,1363,1301,1297,1370,65236,123516,146358,65330
19683,1366,1299,1282,1371,65236,123516,146358,65330
20050,1365,1298,1279,1369,65236,123516,146358,65330
20050,1363,1292,1266,1368,65236,123516,146358,65330
20050,1366,1304,1266,1373,65236,123516,146358,65330
20050,1365,1291,1266,1378,65236,123516,146358,65330
20050,1366,1296,1274,1369,65236,123516,146358,65330
20050,1364,1285,1274,1372,65236,123516,146358,65330
19683,1364,1301,1284,1370,65236,123516,146358,65330
20050,1358,1295,1272,1369,65236,123516,146358,65330
20050,1364,1301,1278,1370,65236,123516,146358,65330
20050,1364,1285,1262,1370,65236,123516,146358,65330
20050,1364,1300,1263,1368,65236,123516,146358,65330
20050,1363,1288,1258,1367,65236,123516,146358,65330
20050,1365,1299,1262,1370,65236,123516,146358,65330
20050,1363,1287,1266,1369,65236,123516,146358,65330
19683,1362,1304,1285,1366,65236,123516,146358,65330
20050,1364,1292,1289,1370,65236,123516,146358,65330
20050,1363,1309,1301,1370,65236,123516,146358,65330
20050,1364,1299,1291,1368,65236,123516,146358,65330
20050,1362,1306,1288,1367,65236,123516,146358,65330
20050,1364,1304,1274,1370,65236,123516,146358,65330
20050,1362,1309,1278,1370,65236,123516,146358,65330
19683,1365,1300,1285,1367,65236,123516,146358,65330
20050,1365,1309,1289,1368,65236,123516,146358,65330
20050,1363,1304,1287,1367,65236,123516,146358,65330
20050,1367,1313,1298,1371,65236,123516,146358,65330
20050,1362,1305,1289,1370,65236,123516,146358,65330
20050,1364,1311,1292,1368,65236,123516,146358,65330
20050,1362,1303,1281,1367,65236,123516,146358,65330
20050,1370,1310,1275,1369,65236,123516,146358,65330
19683,1366,1310,1281,1368,65236,123516,146358,65330
20050,1363,1312,1279,1370,65236,123516,146358,65330
20050,1364,1308,1282,1367,65236,123516,146358,65330
20050,1364,1306,1288,1370,65236,123516,146358,65330
20050,1364,1306,1299,1368,65236,123516,146358,65330
20050,1364,1311,1299,1369,65236,123516,146358,65330
20050,1361,1313,1286,1367,65236,123516,146358,65330
20050,1361,1309,1279,1369,65236,123516,146358,65330
19683,1363,1312,1279,1372,65236,123516,146358,65330
20050,1364,1306,1278,1369,65236,123516,146358,65330
20050,1363,1304,1283,1369,65236,123516,146358,65330
20050,1364,1304,1285,1371,65236,123516,146358,65330
20080,1366,1311,1288,1369,65424,123563,147016,65283
20050,1368,1300,1299,1367,65424,123563,147016,65283
19683,1365,1313,1309,1368,65424,123563,147016,65283
20050,1369,1311,1304,1366,65424,123563,147016,65283
20050,1367,1316,1303,1369,65424,123563,147016,65283
20050,1370,1306,1293,1367,65424,123563,147016,65283
20050,1366,1313,1288,1368,65424,123563,147016,65283
20050,1368,1303,1287,1370,65424,123563,147016,65283
20050,1367,1310,1298,1370,65424,123563,147016,65283
20050,1370,1303,1299,1370,65424,123563,147016,65283
19683,1367,1315,1310,1367,65424,123563,147016,65283
20050,1368,1310,1299,1379,65424,123563,147016,65283
20050,1369,1314,1298,1375,65424,123563,147016,65283
20050,1369,1304,1289,1368,65424,123563,147016,65283
20050,1376,1319,1286,1369,65424,123563,147016,65283
20050,1375,1306,1278,1368,65424,123563,147016,65283
20050,1374,1319,1294,1370,65424,123563,147016,65283
20050,1368,1305,1300,1369,65424,123563,147016,65283
19683,1366,1318,1318,1371,65424,123563,147016,65283
20050,1369,1315,1316,1369,65424,123563,147016,65283
20050,1369,1320,1328,1365,65424,123563,147016,65283
20050,1372,1314,1314,1370,65424,123563,147016,65283
20050,1368,1324,1316,1368,65424,123563,147016,65283
20050,1370,1316,1304,1368,65424,123563,147016,65283
20050,1367,1319,1308,1369,65424,123563,147016,65283
19683,1369,1308,1309,1371,65424,123563,147016,65283
20050,1370,1317,1319,1368,65424,123563,147016,65283
20050,1368,1310,1315,1366,65424,123563,147016,65283
20050,1368,1319,1324,1369,65424,123563,147016,65283
20050,1369,1310,1320,1379,65424,123563,147016,65283
20050,1368,1315,1320,1375,65424,123563,147016,65283
20050,1370,1316,1308,1369,65424,123563,147016,65283
20050,1376,1319,1307,1371,65424,123563,147016,65283
19683,1378,1310,1306,1367,65424,123563,147016,65283
20050,1376,1316,1310,1371,65424,123563,147016,65283
20050,1372,1315,1318,1370,65424,123563,147016,65283
20050,1368,1313,1317,1366,65424,123563,147016,65283
20050,1368,1314,1328,1366,65424,123563,147016,65283
20050,1370,1319,1328,1371,65424,123563,147016,65283
20050,1368,1321,1321,1369,65424,123563,147016,65283
19683,1369,1318,1309,1367,65424,123563,147016,65283
20050,1365,1320,1310,1372,65424,123563,147016,65283
20050,1371,1314,1313,1372,65424,123563,147016,65283
20050,1369,1313,1314,1369,65424,123563,147016,65283
20050,1372,1313,1316,1369,65424,123563,147016,65283
20050,1369,1320,1329,1367,65424,123563,147016,65283
20050,1368,1320,1327,1378,65424,123563,147016,65283
20050,1369,1323,1321,1377,65424,123563,147016,65283
19683,1368,1323,1311,1375,65424,123563,147016,65283
20050,1368,1327,1313,1366,65424,123563,147016,65283
20050,1380,1312,1296,1369,65424,123563,147016,65283
20050,1379,1319,1303,1370,65424,123563,147016,65283
20050,1374,1314,1301,1369,65424,123563,147016,65283
20050,1371,1321,1313,1368,65424,123563,147016,65283
20050,1369,1314,1316,1370,65424,123563,147016,65283
19683,1370,1325,1327,1369,65424,123563,147016,65283
20050,1369,1321,1315,1370,65424,123563,147016,65283
20050,1368,1325,1317,1370,65424,123563,147016,65283
20050,1370,1312,1299,1368,65424,123563,147016,65283
20050,1365,1327,1300,1370,65424,123563,147016,65283
20050,1367,1312,1300,1369,65424,123563,147016,65283
20050,1370,1322,1312,1369,65424,123563,147016,65283
20050,1369,1312,1314,1369,65424,123563,147016,65283
19683,1368,1325,1329,1369,65424,123563,147016,65283
20050,1370,1325,1329,1383,65424,123563,147016,65283
20050,1370,1332,1330,1378,65424,123563,147016,65283
20050,1366,1319,1319,1369,65424,123563,147016,65283
20050,1377,1335,1323,1367,65424,123563,147016,65283
20050,1375,1321,1311,1370,65424,123563,147016,65283
20050,1378,1329,1319,1368,65424,123563,147016,65283
19683,1368,1318,1323,1368,65424,123563,147016,65283
20050,1368,1327,1334,1369,65424,123563,147016,65283
20050,1369,1322,1333,1369,65424,123563,147016,65283
20050,1369,1332,1340,1369,65424,123563,147016,65283
20050,1369,1321,1330,1367,65424,123563,147016,65283
20050,1368,1326,1330,1371,65424,123563,147016,65283
20050,1367,1326,1320,1371,65424,123563,147016,65283
20050,1368,1325,1323,1370,65424,123563,147016,65283
19683,1370,1317,1327,1371,65424,123563,147016,65283
20050,1368,1330,1336,1371,65424,123563,147016,65283
20050,1370,1326,1345,1367,65424,123563,147016,65283
20050,1369,1333,1344,1368,65424,123563,147016,65283
20050,1370,1322,1336,1374,65424,123563,147016,65283
20050,1368,1326,1332,1379,65424,123563,147016,65283
20050,1369,1329,1325,1370,65424,123563,147016,65283
19683,1379,1328,1324,1369,65424,123563,147016,65283
20050,1377,1320,1315,1369,65424,123563,147016,65283
20050,1375,1322,1321,1367,65424,123563,147016,65283
20050,1369,1322,1330,1372,65424,123563,147016,65283
20050,1370,1322,1331,1369,65424,123563,147016,65283
20050,1370,1323,1342,1370,65424,123563,147016,65283
20050,1371,1322,1338,1371,65424,123563,147016,65283
20050,1367,1322,1332,1370,65424,123563,147016,65283
19683,1372,1325,1319,1370,65424,123563,147016,65283
20050,1369,1323,1322,1370,65424,123563,147016,65283
20050,1370,1314,1313,1371,65424,123563,147016,65283
20050,1370,1314,1326,1368,65424,123563,147016,65283
20050,1367,1311,1325,1367,65424,123563,147016,65283
20050,1371,1323,1335,1368,65424,123563,147016,65283
20050,1376,1322,1337,1379,65424,123563,147016,65283
19683,1368,1321,1328,1379,65424,123563,147016,65283
20050,1368,1320,1315,1379,65424,123563,147016,65283
20050,1370,1325,1317,1372,65424,123563,147016,65283
20050,1380,1313,1312,1372,65424,123563,147016,65283
20050,1377,1315,1308,1369,65424,123563,147016,65283
20050,1377,1313,1308,1368,65424,123563,147016,65283
20050,1370,1322,1323,1371,65424,123563,147016,65283
20050,1369,1309,1332,1368,65424,123563,147016,65283
19683,1370,1324,1343,1369,65424,123563,147016,65283
20050,1372,1325,1339,1372,65424,123563,147016,65283
20050,1372,1331,1344,1370,65424,123563,147016,65283
20050,1370,1316,1328,1371,65424,123563,147016,65283
20050,1368,1329,1325,1370,65424,123563,147016,65283
20050,1369,1312,1324,1373,65424,123563,147016,65283
20050,1372,1323,1336,1371,65424,123563,147016,65283
20050,1372,1311,1344,1369,65424,123563,147016,65283
19683,1368,1322,1351,1370,65424,123563,147016,65283
20050,1369,1313,1341,1377,65424,123563,147016,65283
20050,1370,1327,1345,1383,65424,123563,147016,65283
20050,1370,1319,1331,1379,65424,123563,147016,65283
20050,1370,1329,1335,1372,65424,123563,147016,65283
20050,1378,1315,1325,1370,65424,123563,147016,65283
20050,1376,1325,1333,1369,65424,123563,147016,65283
19683,1380,1314,1334,1371,65424,123563,147016,65283
20050,1369,1327,1345,1369,65424,123563,147016,65283
20050,1369,1321,1343,1370,65424,123563,147016,65283
20050,1370,1334,1350,1370,65424,123563,147016,65283
20050,1368,1324,1341,1370,65424,123563,147016,65283
20050,1369,1328,1339,1372,65424,123563,147016,65283
20050,1369,1330,1325,1370,65424,123563,147016,65283
20050,1370,1328,1326,1369,65424,123563,147016,65283
19683,1369,1316,1331,1370,65424,123563,147016,65283
20050,1365,1327,1338,1368,65424,123563,147016,65283
20050,1369,1324,1346,1367,65424,123563,147016,65283
20050,1368,1332,1345,1368,65424,123563,147016,65283
20050,1367,1327,1338,1377,65424,123563,147016,65283
20050,1369,1330,1335,1377,65424,123563,147016,65283
20050,1370,1327,1330,1375,65424,123563,147016,65283
19683,1367,1325,1327,1368,65424,123563,147016,65283
20050,1376,1322,1326,1369,65424,123563,147016,65283
20050,1381,1328,1326,1368,65424,123563,147016,65283
20050,1379,1326,1336,1369,65424,123563,147016,65283
20050,1368,1325,1333,1365,65424,123563,147016,65283
20050,1367,1331,1344,1366,65424,123563,147016,65283
20050,1366,1332,1343,1368,65424,123563,147016,65283
20050,1369,1332,1331,1370,65424,123563,147016,65283
19683,1369,1332,1324,1367,65424,123563,147016,65283
20050,1367,1336,1329,1368,65424,123563,147016,65283
20050,1368,1329,1330,1374,65424,123563,147016,65283
20050,1371,1332,1343,1372,65424,123563,147016,65283
20080,1376,1325,1333,1365,65377,123093,146264,65236
20050,1376,1330,1331,1365,65377,123093,146264,65236
20050,1370,1315,1323,1362,65377,123093,146264,65236
19683,1370,1328,1336,1365,65377,123093,146264,65236
20050,1370,1319,1331,1367,65377,123093,146264,65236
20050,1367,1332,1328,1362,65377,123093,146264,65236
20050,1368,1321,1318,1365,65377,123093,146264,65236
20050,1370,1333,1318,1365,65377,123093,146264,65236
20050,1371,1319,1315,1364,65377,123093,146264,65236
20050,1365,1329,1325,1363,65377,123093,146264,65236
19683,1370,1316,1329,1365,65377,123093,146264,65236
20050,1369,1333,1337,1366,65377,123093,146264,65236
20050,1367,1328,1332,1363,65377,123093,146264,65236
20050,1368,1335,1329,1371,65377,123093,146264,65236
20050,1366,1328,1318,1370,65377,123093,146264,65236
20050,1369,1335,1317,1373,65377,123093,146264,65236
20050,1371,1323,1314,1366,65377,123093,146264,65236
20050,1376,1332,1327,1364,65377,123093,146264,65236
19683,1381,1321,1322,1363,65377,123093,146264,65236
20050,1380,1330,1328,1367,65377,123093,146264,65236
20050,1371,1320,1332,1362,65377,123093,146264,65236
20050,1369,1339,1339,1365,65377,123093,146264,65236
20050,1368,1325,1325,1365,65377,123093,146264,65236
20050,1367,1330,1324,1367,65377,123093,146264,65236
20050,1369,1331,1318,1363,65377,123093,146264,65236
19683,1370,1330,1315,1360,65377,123093,146264,65236
20050,1370,1321,1316,1364,65377,123093,146264,65236
20050,1367,1325,1327,1363,65377,123093,146264,65236
20050,1373,1322,1333,1366,65377,123093,146264,65236
20050,1369,1332,1334,1365,65377,123093,146264,65236
20050,1367,1331,1325,1364,65377,123093,146264,65236
20050,1370,1326,1322,1372,65377,123093,146264,65236
20050,1368,1329,1317,1373,65377,123093,146264,65236
19683,1370,1330,1314,1372,65377,123093,146264,65236
20050,1371,1324,1312,1367,65377,123093,146264,65236
20050,1375,1321,1313,1365,65377,123093,146264,65236
20050,1378,1323,1318,1364,65377,123093,146264,65236
20050,1377,1327,1319,1363,65377,123093,146264,65236
20050,1370,1326,1327,1364,65377,123093,146264,65236
20050,1368,1334,1333,1363,65377,123093,146264,65236
19683,1368,1335,1337,1368,65377,123093,146264,65236
20050,1371,1334,1326,1367,65377,123093,146264,65236
20050,1370,1341,1323,1367,65377,123093,146264,65236
20050,1368,1331,1322,1363,65377,123093,146264,65236
20050,1370,1331,1328,1366,65377,123093,146264,65236
20050,1367,1325,1331,1365,65377,123093,146264,65236
20050,1372,1337,1343,1364,65377,123093,146264,65236
20050,1370,1334,1332,1364,65377,123093,146264,65236
19683,1368,1334,1337,1366,65377,123093,146264,65236
20050,1371,1336,1325,1373,65377,123093,146264,65236
20050,1367,1338,1322,1373,65377,123093,146264,65236
20050,1371,1328,1318,1375,65377,123093,146264,65236
20050,1369,1331,1329,1364,65377,123093,146264,65236
20050,1376,1322,1322,1364,65377,123093,146264,65236
20050,1374,1335,1336,1362,65377,123093,146264,65236
19683,1376,1319,1327,1366,65377,123093,146264,65236
20050,1370,1326,1340,1362,65377,123093,146264,65236
20050,1370,1330,1333,1367,65377,123093,146264,65236
20050,1369,1338,1331,1365,65377,123093,146264,65236
20050,1369,1327,1321,1367,65377,123093,146264,65236
20050,1368,1338,1317,1365,65377,123093,146264,65236
20050,1366,1318,1314,1363,65377,123093,146264,65236
20050,1373,1336,1332,1365,65377,123093,146264,65236
19683,1371,1318,1328,1365,65377,123093,146264,65236
20050,1370,1333,1338,1364,65377,123093,146264,65236
20050,1369,1319,1328,1364,65377,123093,146264,65236
20050,1371,1334,1327,1365,65377,123093,146264,65236
20050,1370,1323,1318,1372,65377,123093,146264,65236
20050,1369,1328,1314,1373,65377,123093,146264,65236
20050,1369,1315,1312,1371,65377,123093,146264,65236
19683,1371,1324,1318,1365,65377,123093,146264,65236
20050,1378,1314,1314,1366,65377,123093,146264,65236
20050,1381,1330,1325,1361,65377,123093,146264,65236
20050,1368,1312,1325,1364,65377,123093,146264,65236
20050,1367,1326,1327,1366,65377,123093,146264,65236
20050,1369,1320,1319,1363,65377,123093,146264,65236
20050,1367,1322,1319,1365,65377,123093,146264,65236
20050,1367,1323,1309,1366,65377,123093,146264,65236
19683,1369,1321,1308,1362,65377,123093,146264,65236
20050,1370,1311,1305,1364,65377,123093,146264,65236
20050,1370,1314,1320,1361,65377,123093,146264,65236
20050,1365,1316,1330,1365,65377,123093,146264,65236
20050,1369,1323,1334,1363,65377,123093,146264,65236
20050,1369,1322,1329,1365,65377,123093,146264,65236
20050,1369,1329,1332,1364,65377,123093,146264,65236
19683,1370,1329,1323,1375,65377,123093,146264,65236
20050,1368,1323,1321,1376,65377,123093,146264,65236
20050,1369,1319,1322,1363,65377,123093,146264,65236
20050,1371,1319,1325,1365,65377,123093,146264,65236
20050,1377,1320,1326,1363,65377,123093,146264,65236
20050,1377,1324,1327,1364,65377,123093,146264,65236
20050,1370,1316,1330,1366,65377,123093,146264,65236
20050,1372,1317,1325,1363,65377,123093,146264,65236
19683,1369,1324,1333,1365,65377,123093,146264,65236
20050,1368,1321,1317,1364,65377,123093,146264,65236
20050,1370,1327,1322,1366,65377,123093,146264,65236
20050,1372,1313,1314,1364,65377,123093,146264,65236
20050,1368,1318,1329,1364,65377,123093,146264,65236
20050,1369,1311,1324,1362,65377,123093,146264,65236
20050,1367,1328,1338,1362,65377,123093,146264,65236
20050,1370,1321,1327,1366,65377,123093,146264,65236
19683,1369,1319,1329,1364,65377,123093,146264,65236
20050,1369,1315,1316,1365,65377,123093,146264,65236
20050,1369,1321,1310,1374,65377,123093,146264,65236
20050,1366,1314,1311,1374,65377,123093,146264,65236
20050,1368,1316,1320,1362,65377,123093,146264,65236
20050,1376,1306,1316,1365,65377,123093,146264,65236
20050,1376,1318,1325,1361,65377,123093,146264,65236
19683,1368,1316,1313,1365,65377,123093,146264,65236
20050,1369,1313,1324,1367,65377,123093,146264,65236
20050,1374,1310,1319,1363,65377,123093,146264,65236
20050,1368,1323,1320,1364,65377,123093,146264,65236
20050,1366,1309,1307,1364,65377,123093,146264,65236
20050,1369,1322,1310,1364,65377,123093,146264,65236
20050,1371,1311,1307,1362,65377,123093,146264,65236
20050,1369,1317,1321,1361,65377,123093,146264,65236
19683,1369,1310,1319,1365,65377,123093,146264,65236
20050,1369,1324,1331,1363,65377,123093,146264,65236
20050,1370,1318,1319,1363,65377,123093,146264,65236
20050,1367,1324,1320,1362,65377,123093,146264,65236
20050,1370,1314,1307,1363,65377,123093,146264,65236
20050,1366,1322,1307,1374,65377,123093,146264,65236
20050,1367,1314,1314,1369,65377,123093,146264,65236
19683,1369,1333,1328,1365,65377,123093,146264,65236
20050,1377,1322,1330,1362,65377,123093,146264,65236
20050,1379,1331,1335,1365,65377,123093,146264,65236
20050,1369,1326,1337,1365,65377,123093,146264,65236
20050,1369,1327,1336,1363,65377,123093,146264,65236
20050,1368,1330,1327,1363,65377,123093,146264,65236
20050,1370,1331,1338,1364,65377,123093,146264,65236
20050,1369,1333,1327,1365,65377,123093,146264,65236
19683,1368,1331,1326,1364,65377,123093,146264,65236
20050,1369,1323,1325,1364,65377,123093,146264,65236
20050,1370,1322,1331,1365,65377,123093,146264,65236
20050,1372,1324,1343,1366,65377,123093,146264,65236
20050,1371,1333,1344,1366,65377,123093,146264,65236
20050,1370,1330,1336,1364,65377,123093,146264,65236
20050,1369,1330,1325,1365,65377,123093,146264,65236
19683,1368,1333,1326,1377,65377,123093,146264,65236
20050,1369,1338,1322,1373,65377,123093,146264,65236
20050,1370,1327,1321,1365,65377,123093,146264,65236
20050,1368,1326,1325,1366,65377,123093,146264,65236
20050,1377,1328,1338,1364,65377,123093,146264,65236
20050,1375,1328,1330,1364,65377,123093,146264,65236
20050,1367,1331,1332,1366,65377,123093,146264,65236
20050,1371,1321,1324,1365,65377,123093,146264,65236
19683,1368,1331,1330,1366,65377,123093,146264,65236
20050,1370,1332,1321,1365,65377,123093,146264,65236
20050,1367,1337,1317,1363,65377,123093,146264,65236
20050,1369,1324,1314,1365,65377,123093,146264,65236
20080,1369,1327,1324,1367,65283,122388,145324,65377
20050,1371,1304,1302,1370,65283,122388,145324,65377
20050,1369,1319,1312,1370,65283,122388,145324,65377
19683,1370,1314,1296,1368,65283,122388,145324,65377
20050,1366,1318,1307,1370,65283,122388,145324,65377
20050,1367,1302,1294,1370,65283,122388,145324,65377
20050,1369,1315,1295,1367,65283,122388,145324,65377
20050,1369,1311,1280,1370,65283,122388,145324,65377
20050,1367,1315,1288,1369,65283,122388,145324,65377
20050,1368,1308,1288,1367,65283,122388,145324,65377
19683,1369,1320,1299,1370,65283,122388,145324,65377
20050,1371,1307,1295,1367,65283,122388,145324,65377
20050,1371,1327,1310,1368,65283,122388,145324,65377
20050,1367,1315,1304,1365,65283,122388,145324,65377
20050,1370,1328,1308,1370,65283,122388,145324,65377
20050,1367,1323,1299,1368,65283,122388,145324,65377
20050,1370,1325,1302,1375,65283,122388,145324,65377
20050,1369,1314,1303,1378,65283,122388,145324,65377
19683,1368,1323,1314,1368,65283,122388,145324,65377
20050,1366,1313,1311,1366,65283,122388,145324,65377
20050,1379,1325,1318,1367,65283,122388,145324,65377
20050,1367,1317,1316,1371,65283,122388,145324,65377
20050,1368,1324,1314,1371,65283,122388,145324,65377
20050,1368,1314,1302,1367,65283,122388,145324,65377
20050,1368,1320,1294,1365,65283,122388,145324,65377
19683,1368,1326,1299,1366,65283,122388,145324,65377
20050,1367,1326,1303,1371,65283,122388,145324,65377
20050,1366,1318,1304,1368,65283,122388,145324,65377
20050,1370,1317,1312,1368,65283,122388,145324,65377
20050,1368,1317,1324,1366,65283,122388,145324,65377
20050,1367,1330,1324,1370,65283,122388,145324,65377
20050,1368,1326,1312,1371,65283,122388,145324,65377
20050,1368,1322,1304,1366,65283,122388,145324,65377
19683,1369,1323,1303,1369,65283,122388,145324,65377
20050,1367,1326,1303,1380,65283,122388,145324,65377
20050,1369,1319,1311,1370,65283,122388,145324,65377
20050,1373,1315,1308,1369,65283,122388,145324,65377
20050,1369,1313,1316,1372,65283,122388,145324,65377
20050,1375,1319,1318,1368,65283,122388,145324,65377
20050,1368,1322,1311,1367,65283,122388,145324,65377
19683,1369,1320,1302,1369,65283,122388,145324,65377
20050,1369,1315,1299,1369,65283,122388,145324,65377
20050,1369,1304,1293,1369,65283,122388,145324,65377
20050,1368,1327,1292,1372,65283,122388,145324,65377
20050,1368,1312,1292,1370,65283,122388,145324,65377
20050,1366,1315,1304,1368,65283,122388,145324,65377
20050,1367,1310,1303,1368,65283,122388,145324,65377
20050,1369,1320,1316,1369,65283,122388,145324,65377
19683,1371,1321,1306,1373,65283,122388,145324,65377
20050,1371,1324,1309,1372,65283,122388,145324,65377
20050,1368,1313,1298,1368,65283,122388,145324,65377
20050,1369,1324,1292,1370,65283,122388,145324,65377
20050,1369,1315,1289,1376,65283,122388,145324,65377
20050,1370,1317,1297,1368,65283,122388,145324,65377
20050,1366,1307,1296,1367,65283,122388,145324,65377
19683,1369,1317,1308,1368,65283,122388,145324,65377
20050,1367,1314,1298,1370,65283,122388,145324,65377
20050,1370,1323,1301,1368,65283,122388,145324,65377
20050,1367,1302,1294,1370,65283,122388,145324,65377
20050,1366,1313,1299,1371,65283,122388,145324,65377
20050,1369,1307,1293,1368,65283,122388,145324,65377
20050,1368,1322,1299,1370,65283,122388,145324,65377
20050,1368,1314,1305,1369,65283,122388,145324,65377
19683,1369,1323,1316,1369,65283,122388,145324,65377
20050,1369,1310,1312,1366,65283,122388,145324,65377
20050,1369,1323,1325,1372,65283,122388,145324,65377
20050,1370,1313,1312,1370,65283,122388,145324,65377
20050,1366,1322,1317,1370,65283,122388,145324,65377
20050,1368,1320,1302,1370,65283,122388,145324,65377
20050,1369,1322,1303,1370,65283,122388,145324,65377
20050,1369,1309,1304,1376,65283,122388,145324,65377
19683,1369,1320,1310,1367,65283,122388,145324,65377
20050,1369,1312,1315,1368,65283,122388,145324,65377
20050,1373,1322,1327,1370,65283,122388,145324,65377
20050,1372,1315,1319,1367,65283,122388,145324,65377
20050,1365,1323,1316,1368,65283,122388,145324,65377
20050,1367,1312,1304,1367,65283,122388,145324,65377
20050,1374,1308,1297,1368,65283,122388,145324,65377
19683,1369,1309,1299,1367,65283,122388,145324,65377
20050,1370,1320,1305,1369,65283,122388,145324,65377
20050,1371,1311,1299,1366,65283,122388,145324,65377
20050,1370,1308,1306,1372,65283,122388,145324,65377
20050,1367,1309,1320,1368,65283,122388,145324,65377
20050,1370,1317,1321,1367,65283,122388,145324,65377
20050,1371,1315,1307,1367,65283,122388,145324,65377
20050,1366,1315,1299,1368,65283,122388,145324,65377
19683,1368,1317,1302,1370,65283,122388,145324,65377
20050,1366,1311,1300,1369,65283,122388,145324,65377
20050,1371,1309,1302,1372,65283,122388,145324,65377
20050,1369,1309,1303,1371,65283,122388,145324,65377
20050,1373,1311,1314,1372,65283,122388,145324,65377
20050,1369,1311,1312,1379,65283,122388,145324,65377
20050,1369,1310,1309,1367,65283,122388,145324,65377
19683,1367,1308,1297,1367,65283,122388,145324,65377
20050,1370,1305,1298,1369,65283,122388,145324,65377
20050,1375,1304,1287,1371,65283,122388,145324,65377
20050,1367,1312,1288,1367,65283,122388,145324,65377
20050,1369,1306,1286,1369,65283,122388,145324,65377
20050,1372,1313,1299,1371,65283,122388,145324,65377
20050,1369,1302,1298,1369,65283,122388,145324,65377
20050,1371,1317,1315,1366,65283,122388,145324,65377
19683,1370,1316,1313,1367,65283,122388,145324,65377
20050,1369,1327,1320,1368,65283,122388,145324,65377
20050,1369,1320,1312,1369,65283,122388,145324,65377
20050,1372,1333,1310,1369,65283,122388,145324,65377
20050,1369,1321,1313,1371,65283,122388,145324,65377
20050,1368,1329,1322,1368,65283,122388,145324,65377
20050,1370,1311,1322,1369,65283,122388,145324,65377
19683,1369,1327,1335,1370,65283,122388,145324,65377
20050,1369,1323,1320,1377,65283,122388,145324,65377
20050,1366,1330,1328,1367,65283,122388,145324,65377
20050,1370,1316,1315,1370,65283,122388,145324,65377
20050,1369,1323,1317,1370,65283,122388,145324,65377
20050,1377,1315,1300,1371,65283,122388,145324,65377
20050,1368,1322,1312,1370,65283,122388,145324,65377
20050,1370,1315,1317,1370,65283,122388,145324,65377
19683,1368,1323,1328,1369,65283,122388,145324,65377
20050,1371,1312,1326,1372,65283,122388,145324,65377
20050,1373,1325,1337,1370,65283,122388,145324,65377
20050,1369,1313,1324,1371,65283,122388,145324,65377
20050,1371,1327,1328,1370,65283,122388,145324,65377
20050,1372,1324,1313,1369,65283,122388,145324,65377
20050,1369,1315,1313,1372,65283,122388,145324,65377
19683,1370,1312,1312,1372,65283,122388,145324,65377
20050,1372,1324,1321,1369,65283,122388,145324,65377
20050,1371,1318,1324,1371,65283,122388,145324,65377
20050,1370,1325,1332,1373,65283,122388,145324,65377
20050,1371,1315,1325,1370,65283,122388,145324,65377
20050,1371,1323,1326,1372,65283,122388,145324,65377
20050,1371,1318,1317,1372,65283,122388,145324,65377
20050,1379,1311,1310,1372,65283,122388,145324,65377
19683,1380,1314,1310,1372,65283,122388,145324,65377
20050,1371,1319,1317,1373,65283,122388,145324,65377
20050,1371,1317,1325,1373,65283,122388,145324,65377
20050,1369,1315,1323,1373,65283,122388,145324,65377
20050,1370,1315,1334,1370,65283,122388,145324,65377
20050,1370,1324,1339,1374,65283,122388,145324,65377
20050,1372,1324,1328,1371,65283,122388,145324,65377
19683,1373,1320,1318,1370,65283,122388,145324,65377
20050,1368,1323,1316,1370,65283,122388,145324,65377
20050,1368,1319,1318,1374,65283,122388,145324,65377
20050,1373,1319,1320,1371,65283,122388,145324,65377
20050,1371,1319,1324,1371,65283,122388,145324,65377
20050,1370,1318,1336,1371,65283,122388,145324,65377
20050,1372,1329,1345,1380,65283,122388,145324,65377
20050,1370,1329,1344,1371,65283,122388,145324,65377
19683,1372,1332,1339,1373,65283,122388,145324,65377
20050,1371,1330,1339,1370,65283,122388,145324,65377
20050,1379,1318,1329,1373,65283,122388,145324,65377
20050,1372,1331,1336,1372,65283,122388,145324,65377
20080,1373,1325,1333,1371,65236,122012,145042,65283
20050,1367,1325,1342,1372,65236,122012,145042,65283
20050,1365,1310,1344,1372,65236,122012,145042,65283
19683,1366,1325,1355,1373,65236,122012,145042,65283
20050,1369,1323,1343,1383,65236,122012,145042,65283
20050,1368,1328,1343,1378,65236,122012,145042,65283
20050,1362,1314,1330,1373,65236,122012,145042,65283
20050,1376,1323,1334,1372,65236,122012,145042,65283
20050,1377,1313,1322,1371,65236,122012,145042,65283
20050,1374,1330,1336,1374,65236,122012,145042,65283
19683,1366,1313,1340,1371,65236,122012,145042,65283
20050,1367,1333,1348,1372,65236,122012,145042,65283
20050,1365,1327,1341,1373,65236,122012,145042,65283
20050,1370,1335,1358,1371,65236,122012,145042,65283
20050,1366,1325,1348,1372,65236,122012,145042,65283
20050,1366,1335,1345,1371,65236,122012,145042,65283
