19958,1369,1365,1360,1363,65330,145324,164124,65236
19866,1369,1368,1367,1364,65330,145324,164124,65236
366,65330,145324,164124,65236
20233,1369,1365,1355,1365,65330,145324,164124,65236
19866,1371,1364,1358,1366,65330,145324,164124,65236
19866,1369,1358,1351,1363,65330,145324,164124,65236
20233,1369,1367,1346,1368,65330,145324,164124,65236
19866,1370,1357,1350,1363,65330,145324,164124,65236
19897,1370,1363,1338,1371,65283,144055,161680,65424
20233,1369,1331,1283,1369,65283,144055,161680,65424
19866,1370,1327,1275,1370,65283,144055,161680,65424
20233,1375,1332,1276,1373,65283,144055,161680,65424
19866,1370,1328,1285,1370,65283,144055,161680,65424
19866,1369,1335,1296,1369,65283,144055,161680,65424
20233,1369,1345,1317,1373,65283,144055,161680,65424
19866,1369,1342,1322,1368,65283,144055,161680,65424
19866,1372,1359,1330,1377,65283,144055,161680,65424
20233,1371,1350,1337,1367,65283,144055,161680,65424
19866,1374,1354,1338,1372,65283,144055,161680,65424
20233,1371,1360,119653,1368,1312,1270,1369,65377,143256,161257,65377
20446,1366,1303,1275,1368,65377,143256,161257,65377
19958,1367,1315,1280,1370,65377,143256,161257,65377
20050,1371,1314,1283,1369,65377,143256,161257,65377
19958,1368,1319,1288,1368,65377,143256,161257,65377
20050,1368,1311,1291,1370,65377,143256,161257,65377
19958,1368,1316,1295,1370,65377,143256,161257,65377
20050,1371,1319,1291,1369,65377,143256,161257,65377
20050,1372,1321,1284,1370,65377,143256,161257,65377
19683,1370,1318,1277,1368,65377,143256,161257,65377
20050,1367,1308,1274,1370,65377,143256,161257,65377
20050,1371,1305,1272,1372,65377,143256,161257,65377
20050,1370,1299,1271,1371,65377,143256,161257,65377
20050,1368,1304,1264,1368,65377,143256,161257,65377
20050,1368,1303,1262,1370,65377,143256,161257,65377
19958,1369,1308,1255,1371,65377,143256,161257,65377
20050,1368,1303,1256,1372,65377,143256,161257,65377
19958,1371,1297,1261,1368,65377,143256,161257,65377
20050,1371,1299,1259,1370,65377,143256,161257,65377
19958,1372,1301,1248,1371,65377,143256,161257,65377
20050,1374,1304,1250,1367,65377,143256,161257,65377
20050,1371,1299,1250,1367,65377,143256,161257,65377
19683,1370,1299,1246,1367,65377,143256,161257,65377
20050,1367,1292,1249,1372,65377,143256,161257,65377
20050,1369,1299,1252,1368,65377,143256,161257,65377
20050,1368,1298,1250,1369,65377,143256,161257,65377
20050,1369,1305,1246,1367,65377,143256,161257,65377
20050,1366,1297,1239,1367,65377,143256,161257,65377
19958,1366,1299,1242,1372,65377,143256,161257,65377
20050,1368,1301,1255,1371,65377,143256,161257,65377
19958,1368,1313,1279,1372,65377,143256,161257,65377
20050,1369,1320,1296,1369,65377,143256,161257,65377
20050,1369,1324,1298,1372,65377,143256,161257,65377
20050,1373,1328,1304,1374,65377,143256,161257,65377
19683,1374,1323,1304,1373,65377,143256,161257,65377
20050,1371,1320,1297,1370,65377,143256,161257,65377
20080,1370,1318,1298,1370,65377,143538,163137,65377
20050,1374,1318,1329,1370,65377,143538,163137,65377
20050,1369,1321,1330,1371,65377,143538,163137,65377
20050,1366,1309,1320,1368,65377,143538,163137,65377
20050,1367,1313,1315,1371,65377,143538,163137,65377
19683,1372,1311,1309,1370,65377,143538,163137,65377
20050,1368,1310,1300,1365,65377,143538,163137,65377
20050,1367,1309,1304,1373,65377,143538,163137,65377
20050,1365,1311,1310,1373,65377,143538,163137,65377
20050,1369,1311,1317,1369,65377,143538,163137,65377
19958,1370,1313,1329,1370,65377,143538,163137,65377
20050,1372,1321,1328,1370,65377,143538,163137,65377
19958,1375,1313,1322,1372,65377,143538,163137,65377
20050,1371,1318,1315,1369,65377,143538,163137,65377
20050,1372,1307,1312,1372,65377,143538,163137,65377
20050,1368,1311,1312,1371,65377,143538,163137,65377
19683,1371,1309,1309,1369,65377,143538,163137,65377
20050,1368,1312,1304,1369,65377,143538,163137,65377
20050,1372,1312,1294,1371,65377,143538,163137,65377
20050,1368,1313,1293,1369,65377,143538,163137,65377
20050,1368,1309,1286,1368,65377,143538,163137,65377
19958,1371,1299,1293,1373,65377,143538,163137,65377
20050,1372,1304,1288,1370,65377,143538,163137,65377
19958,1371,1305,1285,1373,65377,143538,163137,65377
20050,1369,1307,1282,1368,65377,143538,163137,65377
20050,1366,1300,1282,1369,65377,143538,163137,65377
20050,1370,1302,1282,1370,65377,143538,163137,65377
19683,1369,1296,1282,1371,65377,143538,163137,65377
20050,1370,1300,1282,1372,65377,143538,163137,65377
20050,1365,1302,1280,1370,65377,143538,163137,65377
20050,1368,1302,1280,1367,65377,143538,163137,65377
20050,1370,1307,1275,1368,65377,143538,163137,65377
19958,1369,1296,1270,1369,65377,143538,163137,65377
20050,1367,1298,1268,1370,65377,143538,163137,65377
19958,1368,1298,1275,1371,65377,143538,163137,65377
20050,1369,1300,1279,1369,65377,143538,163137,65377
19958,1369,1305,1285,1369,65377,143538,163137,65377
20050,1368,1314,1309,1368,65377,143538,163137,65377
20050,1370,1312,1326,1370,65377,143538,163137,65377
20050,1370,1320,1335,1371,65377,143538,163137,65377
20050,1372,1321,1338,1370,65377,143538,163137,65377
19683,1369,1325,1338,1369,65377,143538,163137,65377
20050,1367,1324,1328,1370,65377,143538,163137,65377
20050,1372,1328,1321,1371,65377,143538,163137,65377
20050,1372,1320,1311,1371,65377,143538,163137,65377
19958,1371,1306,1310,1369,65377,143538,163137,65377
20050,1366,1305,1296,1370,65377,143538,163137,65377
19958,1367,1306,1289,1367,65377,143538,163137,65377
20050,1371,1307,1285,1371,65377,143538,163137,65377
20050,1370,1302,1283,1371,65377,143538,163137,65377
20050,1370,1300,1288,1372,65377,143538,163137,65377
20050,1369,1303,1296,1371,65377,143538,163137,65377
19683,1370,1308,1305,1366,65377,143538,163137,65377
20050,1371,1308,1313,1368,65377,143538,163137,65377
20050,1371,1314,1312,1366,65377,143538,163137,65377
20050,1370,1316,1305,1372,65377,143538,163137,65377
19958,1369,1314,1305,1374,65377,143538,163137,65377
20050,1369,1312,1304,1370,65377,143538,163137,65377
19958,1370,1308,1303,1369,65377,143538,163137,65377
20050,1369,1312,1300,1371,65377,143538,163137,65377
19958,1370,1305,1293,1368,65377,143538,163137,65377
20050,1369,1307,1287,1369,65377,143538,163137,65377
20050,1372,1297,1286,1370,65377,143538,163137,65377
20050,1368,1300,1291,1370,65377,143538,163137,65377
20050,1367,1302,1289,1372,65377,143538,163137,65377
19683,1369,1308,1290,1370,65377,143538,163137,65377
20050,1367,1307,1282,1370,65377,143538,163137,65377
20050,1369,1312,1283,1370,65377,143538,163137,65377
20050,1368,1307,1281,1370,65377,143538,163137,65377
19958,1371,1306,1283,1369,65377,143538,163137,65377
20050,1369,1306,1286,1367,65377,143538,163137,65377
19958,1365,1305,1280,1371,65377,143538,163137,65377
20050,1369,1310,1278,1367,65377,143538,163137,65377
19958,1370,1299,1276,1370,65377,143538,163137,65377
20050,1371,1299,1279,1368,65377,143538,163137,65377
20050,1369,1303,1279,1369,65377,143538,163137,65377
20050,1371,1307,1275,1370,65377,143538,163137,65377
20050,1370,1305,1271,1368,65377,143538,163137,65377
19683,1367,1313,1277,1372,65377,143538,163137,65377
20050,1369,1316,1287,1368,65377,143538,163137,65377
20050,1369,1322,1309,1369,65377,143538,163137,65377
20050,1370,1326,1324,1372,65377,143538,163137,65377
19958,1371,1331,1333,1371,65377,143538,163137,65377
20050,1372,1338,1340,1370,65377,143538,163137,65377
19958,1369,1330,1336,1373,65377,143538,163137,65377
20050,1369,1329,1332,1371,65377,143538,163137,65377
20050,1371,1322,1327,1372,65377,143538,163137,65377
20050,1369,1321,1328,1367,65377,143538,163137,65377
20050,1366,1317,1315,1371,65377,143538,163137,65377
20050,1369,1321,1309,1372,65377,143538,163137,65377
19683,1369,1317,1299,1371,65377,143538,163137,65377
20050,1367,1324,1299,1376,65377,143538,163137,65377
20050,1371,1318,1298,1376,65377,143538,163137,65377
19958,1368,1315,1304,1370,65377,143538,163137,65377
20050,1368,1319,1316,1369,65377,143538,163137,65377
19958,1369,1325,1318,1371,65377,143538,163137,65377
20050,1370,1334,1323,1368,65377,143538,163137,65377
19958,1368,1326,1324,1371,65377,143538,163137,65377
20050,1371,1325,1331,1369,65377,143538,163137,65377
20050,1371,1329,1330,1370,65377,143538,163137,65377
20050,1369,1330,1322,1372,65377,143538,163137,65377
20050,1368,1330,1318,1372,65377,143538,163137,65377
20050,1369,1332,1310,1371,65377,143538,163137,65377
19683,1367,1331,1309,1371,65377,143538,163137,65377
20050,1370,1329,1306,1368,65377,143538,163137,65377
20050,1371,1322,1304,1370,65377,143538,163137,65377
19958,1369,1318,1307,1368,65377,143538,163137,65377
20050,1370,1324,1305,1371,65377,143538,163137,65377
19958,1371,1320,1298,1372,65377,143538,163137,65377
20050,1370,1321,1296,1369,65377,143538,163137,65377
19958,1371,1318,1304,1372,65377,143538,163137,65377
20050,1369,1322,1305,1368,65377,143538,163137,65377
20050,1368,1326,1303,1370,65377,143538,163137,65377
20050,1371,1321,1299,1373,65377,143538,163137,65377
20050,1367,1331,1300,1370,65377,143538,163137,65377
20050,1368,1327,1298,1369,65377,143538,163137,65377
19683,1371,1324,1300,1371,65377,143538,163137,65377
20050,1369,1317,1297,1369,65377,143538,163137,65377
20050,1369,1318,1300,1367,65377,143538,163137,65377
19958,1368,1322,1300,1367,65377,143538,163137,65377
20050,1369,1335,1316,1372,65377,143538,163137,65377
19958,1372,1331,1332,1371,65377,143538,163137,65377
20050,1369,1334,1355,1368,65377,143538,163137,65377
20050,1371,1343,1363,1370,65377,143538,163137,65377
20050,1371,1348,1374,1373,65377,143538,163137,65377
20050,1369,1352,1371,1369,65377,143538,163137,65377
20050,1369,1355,1363,1368,65377,143538,163137,65377
19683,1369,1352,1360,1376,65377,143538,163137,65377
20050,1372,1345,1355,1373,65377,143538,163137,65377
20050,1372,1338,1352,1371,65377,143538,163137,65377
19958,1371,1335,1344,1372,65377,143538,163137,65377
20050,1370,1339,1340,1369,65377,143538,163137,65377
19958,1370,1338,1328,1373,65377,143538,163137,65377
20050,1371,1335,1330,1369,65377,143538,163137,65377
19958,1370,1329,1339,1371,65377,143538,163137,65377
20050,1369,1332,1345,1368,65377,143538,163137,65377
20050,1368,1341,1354,1369,65377,143538,163137,65377
20050,1370,1343,1352,1368,65377,143538,163137,65377
20050,1372,1349,1352,1367,65377,143538,163137,65377
20050,1370,1342,1353,1372,65377,143538,163137,65377
19683,1368,1341,1351,1369,65377,143538,163137,65377
20050,1372,1334,1349,1371,65377,143538,163137,65377
20050,1369,1335,1347,1368,65377,143538,163137,65377
19958,1369,1332,1340,1370,65377,143538,163137,65377
20050,1370,1340,1336,1370,65377,143538,163137,65377
19958,1370,1335,1333,1368,65377,143538,163137,65377
20050,1367,1330,1326,1368,65377,143538,163137,65377
19958,1371,1330,1329,1370,65377,143538,163137,65377
20050,1368,1326,1323,1372,65377,143538,163137,65377
20050,1367,1332,1321,1369,65377,143538,163137,65377
20080,1368,1329,1326,1369,65377,143444,163325,65330
20050,1371,1326,1328,1369,65377,143444,163325,65330
20050,1373,1323,1323,1371,65377,143444,163325,65330
19683,1372,1323,1323,1372,65377,143444,163325,65330
20050,1369,1319,1324,1370,65377,143444,163325,65330
20050,1366,1322,1326,1370,65377,143444,163325,65330
20050,1367,1323,1328,1370,65377,143444,163325,65330
20050,1368,1329,1326,1369,65377,143444,163325,65330
20050,1372,1326,1322,1370,65377,143444,163325,65330
20050,1368,1328,1318,1368,65377,143444,163325,65330
20050,1366,1325,1313,1367,65377,143444,163325,65330
19683,1370,1323,1315,1368,65377,143444,163325,65330
20050,1369,1323,1311,1371,65377,143444,163325,65330
19958,1371,1324,1311,1371,65377,143444,163325,65330
20050,1367,1322,1313,1370,65377,143444,163325,65330
20050,1368,1337,1334,1373,65377,143444,163325,65330
20050,1374,1342,1355,1370,65377,143444,163325,65330
20050,1371,1349,1375,1371,65377,143444,163325,65330
20050,1373,1346,1381,1371,65377,143444,163325,65330
20050,1372,1345,1395,1370,65377,143444,163325,65330
19683,1371,1352,1392,1376,65377,143444,163325,65330
20050,1370,1350,1391,1377,65377,143444,163325,65330
19958,1371,1356,1380,1371,65377,143444,163325,65330
20050,1370,1344,1371,1369,65377,143444,163325,65330
19958,1372,1341,1368,1370,65377,143444,163325,65330
20050,1368,1341,1364,1368,65377,143444,163325,65330
20050,1368,1340,1357,1371,65377,143444,163325,65330
20050,1372,1339,1347,1369,65377,143444,163325,65330
20050,1371,1345,1353,1375,65377,143444,163325,65330
20050,1369,1340,1356,1375,65377,143444,163325,65330
20050,1372,1339,1367,1368,65377,143444,163325,65330
19683,1369,1341,1372,1372,65377,143444,163325,65330
20050,1372,1339,1373,1370,65377,143444,163325,65330
19958,1372,1346,1376,1375,65377,143444,163325,65330
20050,1370,1352,1376,1373,65377,143444,163325,65330
19958,1369,1346,1369,1373,65377,143444,163325,65330
20050,1368,1340,1363,1368,65377,143444,163325,65330
19958,1367,1341,1362,1373,65377,143444,163325,65330
20050,1372,1343,1356,1371,65377,143444,163325,65330
20050,1370,1343,1346,1368,65377,143444,163325,65330
20050,1367,1334,1344,1371,65377,143444,163325,65330
20050,1371,1339,1344,1371,65377,143444,163325,65330
20050,1370,1329,1341,1371,65377,143444,163325,65330
20050,1370,1326,1338,1367,65377,143444,163325,65330
19683,1368,1325,1336,1374,65377,143444,163325,65330
20050,1370,1332,1338,1370,65377,143444,163325,65330
19958,1372,1336,1332,1371,65377,143444,163325,65330
20050,1368,1331,1332,1371,65377,143444,163325,65330
19958,1370,1324,1333,1368,65377,143444,163325,65330
20050,1367,1324,1332,1371,65377,143444,163325,65330
19958,1368,1334,1329,1368,65377,143444,163325,65330
20050,1371,1337,1327,1368,65377,143444,163325,65330
20050,1369,1331,1325,1367,65377,143444,163325,65330
20050,1370,1321,1324,1371,65377,143444,163325,65330
20050,1366,1325,1325,1372,65377,143444,163325,65330
20050,1369,1319,1320,1373,65377,143444,163325,65330
20050,1372,1320,1315,1370,65377,143444,163325,65330
20050,1368,1319,1314,1373,65377,143444,163325,65330
19683,1368,1326,1314,1370,65377,143444,163325,65330
20324,1369,1322,1306,1372,65377,143444,163325,65330
19683,1371,1312,1299,1366,65377,143444,163325,65330
19958,1373,1318,1305,1367,65377,143444,163325,65330
20050,1368,1323,1322,1370,65377,143444,163325,65330
20050,1368,1337,1345,1370,65377,143444,163325,65330
20050,1371,1341,1360,1374,65377,143444,163325,65330
20050,1372,1341,1368,1367,65377,143444,163325,65330
20050,1370,1342,1377,1372,65377,143444,163325,65330
20050,1371,1343,1377,1373,65377,143444,163325,65330
20050,1377,1338,1367,1369,65377,143444,163325,65330
19683,1370,1338,1360,1369,65377,143444,163325,65330
20324,1369,1340,1353,1374,65377,143444,163325,65330
19683,1373,1332,1346,1371,65377,143444,163325,65330
20324,1369,1323,1338,1371,65377,143444,163325,65330
19683,1372,1322,1331,1375,65377,143444,163325,65330
20324,1368,1326,1320,1369,65377,143444,163325,65330
19683,1370,1324,1321,1370,65377,143444,163325,65330
20050,1369,1325,1323,1373,65377,143444,163325,65330
20050,1373,1320,1328,1370,65377,143444,163325,65330
20050,1369,1324,1340,1368,65377,143444,163325,65330
20050,1372,1326,1340,1376,65377,143444,163325,65330
20050,1370,1329,1343,1372,65377,143444,163325,65330
20050,1370,1329,1339,1371,65377,143444,163325,65330
19683,1370,1334,1334,1372,65377,143444,163325,65330
20324,1369,1327,1327,1369,65377,143444,163325,65330
19683,1369,1319,1324,1372,65377,143444,163325,65330
20324,1369,1321,1320,1370,65377,143444,163325,65330
19683,1372,1316,1309,1371,65377,143444,163325,65330
20324,1370,1316,1305,1370,65377,143444,163325,65330
19683,1371,1316,1305,1370,65377,143444,163325,65330
20050,1372,1309,1302,1371,65377,143444,163325,65330
20050,1369,1307,1298,1370,65377,143444,163325,65330
20050,1368,1307,1297,1375,65377,143444,163325,65330
20050,1369,1310,1298,1375,65377,143444,163325,65330
20050,1369,1315,1297,1374,65377,143444,163325,65330
20050,1369,1316,1291,1374,65377,143444,163325,65330
19683,1374,1311,1290,1369,65377,143444,163325,65330
20324,1369,1302,1289,1369,65377,143444,163325,65330
19683,1371,1302,1290,1375,65377,143444,163325,65330
20324,1369,1316,1285,1369,65377,143444,163325,65330
19683,1371,1315,1281,1371,65377,143444,163325,65330
20050,1367,1308,1282,1369,65377,143444,163325,65330
20050,1370,1304,1281,1369,65377,143444,163325,65330
20050,1369,1303,1279,1371,65377,143444,163325,65330
20050,1370,1301,1278,1372,65377,143444,163325,65330
20050,1368,1301,1274,1367,65377,143444,163325,65330
20050,1369,1301,1279,1372,65377,143444,163325,65330
20050,1371,1307,1274,1372,65377,143444,163325,65330
19683,1371,1302,1267,1369,65377,143444,163325,65330
20050,1371,1301,1266,1371,65377,143444,163325,65330
20050,1370,1299,1270,1372,65377,143444,163325,65330
20050,1369,1311,1292,1369,65377,143444,163325,65330
20050,1369,1314,1313,1368,65377,143444,163325,65330
20050,1372,1323,1338,1372,65377,143444,163325,65330
20050,1370,1330,1345,1371,65377,143444,163325,65330
19683,1370,1334,1345,1374,65377,143444,163325,65330
20050,1374,1336,1341,1372,65377,143444,163325,65330
20050,1370,1337,1335,1370,65377,143444,163325,65330
20050,1371,1329,1327,1370,65377,143444,163325,65330
20050,1370,1324,1321,1369,65377,143444,163325,65330
20050,1369,1318,1312,1369,65377,143444,163325,65330
20050,1368,1313,1308,1369,65377,143444,163325,65330
20050,1369,1310,1302,1374,65377,143444,163325,65330
19683,1370,1315,1304,1372,65377,143444,163325,65330
20050,1372,1316,1307,1371,65377,143444,163325,65330
20050,1369,1320,1312,1371,65377,143444,163325,65330
20050,1372,1317,1312,1368,65377,143444,163325,65330
20050,1373,1330,1323,1370,65377,143444,163325,65330
20050,1369,1326,1326,1370,65377,143444,163325,65330
20050,1368,1323,1329,1370,65377,143444,163325,65330
19683,1367,1320,1327,1371,65377,143444,163325,65330
20050,1371,1320,1328,1373,65377,143444,163325,65330
20050,1370,1324,1323,1371,65377,143444,163325,65330
20050,1372,1326,1318,1368,65377,143444,163325,65330
20050,1369,1324,1307,1370,65377,143444,163325,65330
20050,1371,1326,1307,1368,65377,143444,163325,65330
20050,1371,1321,1307,1371,65377,143444,163325,65330
20050,1371,1318,1303,1371,65377,143444,163325,65330
19683,1370,1316,1298,1371,65377,143444,163325,65330
20050,1369,1311,1305,1370,65377,143444,163325,65330
20050,1369,1311,1302,1376,65377,143444,163325,65330
20050,1369,1320,1300,1370,65377,143444,163325,65330
20050,1368,1319,1302,1369,65377,143444,163325,65330
20050,1372,1317,1301,1367,65377,143444,163325,65330
20050,1371,1319,1299,1370,65377,143444,163325,65330
19683,1369,1316,1300,1373,65377,143444,163325,65330
20050,1371,1310,1298,1369,65377,143444,163325,65330
20050,1367,1310,1292,1371,65377,143444,163325,65330
20050,1367,1309,1299,1371,65377,143444,163325,65330
20050,1373,1312,1300,1369,65377,143444,163325,65330
20050,1370,1308,1295,1369,65377,143444,163325,65330
20080,1367,1310,1292,1369,65330,143115,162808,65283
19683,1368,1305,1281,1368,65330,143115,162808,65283
20050,1371,1307,1275,1368,65330,143115,162808,65283
20050,1374,1302,1269,1367,65330,143115,162808,65283
20050,1368,1292,1271,1369,65330,143115,162808,65283
20050,1368,1295,1270,1368,65330,143115,162808,65283
20050,1369,1297,1292,1372,65330,143115,162808,65283
20050,1371,1316,1316,1369,65330,143115,162808,65283
20050,1370,1317,1335,1370,65330,143115,162808,65283
19683,1371,1328,1352,1372,65330,143115,162808,65283
20050,1370,1333,1354,1372,65330,143115,162808,65283
20050,1372,1338,1355,1371,65330,143115,162808,65283
20050,1371,1333,1344,1371,65330,143115,162808,65283
20050,1370,1330,1339,1371,65330,143115,162808,65283
20050,1368,1323,1335,1371,65330,143115,162808,65283
20050,1372,1319,1331,1371,65330,143115,162808,65283
19683,1370,1314,1325,1374,65330,143115,162808,65283
20050,1368,1319,1317,1375,65330,143115,162808,65283
20050,1370,1317,1312,1370,65330,143115,162808,65283
20050,1371,1319,1314,1370,65330,143115,162808,65283
20050,1373,1320,1316,1371,65330,143115,162808,65283
20050,1373,1321,1316,1370,65330,143115,162808,65283
20050,1369,1320,1326,1371,65330,143115,162808,65283
20050,1373,1324,1334,1371,65330,143115,162808,65283
19683,1368,1321,1334,1375,65330,143115,162808,65283
20050,1370,1324,1338,1374,65330,143115,162808,65283
20050,1373,1327,1339,1372,65330,143115,162808,65283
20050,1370,1329,1333,1371,65330,143115,162808,65283
20050,1369,1323,1324,1373,65330,143115,162808,65283
20050,1370,1328,1324,1369,65330,143115,162808,65283
20050,1373,1325,1317,1369,65330,143115,162808,65283
19683,1369,1323,1315,1366,65330,143115,162808,65283
20050,1367,1317,1314,1370,65330,143115,162808,65283
20050,1370,1317,1315,1370,65330,143115,162808,65283
20050,1370,1315,1309,1371,65330,143115,162808,65283
20050,1369,1321,1309,1371,65330,143115,162808,65283
20050,1371,1320,1308,1370,65330,143115,162808,65283
20050,1373,1326,1309,1370,65330,143115,162808,65283
20050,1373,1316,1304,1369,65330,143115,162808,65283
19683,1372,1318,1308,1368,65330,143115,162808,65283
20050,1369,1314,1305,1371,65330,143115,162808,65283
20050,1373,1309,1304,1374,65330,143115,162808,65283
20050,1369,1309,1306,1367,65330,143115,162808,65283
20050,1370,1312,1305,1368,65330,143115,162808,65283
20050,1366,1315,1305,1370,65330,143115,162808,65283
20050,1370,1314,1301,1368,65330,143115,162808,65283
19683,1369,1314,1295,1371,65330,143115,162808,65283
20050,1368,1315,1295,1370,65330,143115,162808,65283
20050,1371,1312,1291,1371,65330,143115,162808,65283
20050,1370,1307,1292,1369,65330,143115,162808,65283
20050,1369,1306,1291,1367,65330,143115,162808,65283
20050,1371,1305,1288,1374,65330,143115,162808,65283
20050,1369,1312,1291,1377,65330,143115,162808,65283
20050,1367,1312,1299,1375,65330,143115,162808,65283
19683,1372,1325,1318,1373,65330,143115,162808,65283
20050,1375,1337,1342,1369,65330,143115,162808,65283
20050,1373,1340,1355,1374,65330,143115,162808,65283
20050,1377,1338,1367,1372,65330,143115,162808,65283
20050,1372,1337,1371,1372,65330,143115,162808,65283
20050,1374,1334,1367,1368,65330,143115,162808,65283
20050,1370,1336,1364,1373,65330,143115,162808,65283
20050,1372,1332,1362,1372,65330,143115,162808,65283
19683,1370,1334,1350,1373,65330,143115,162808,65283
20050,1370,1329,1338,1370,65330,143115,162808,65283
20050,1370,1331,1332,1370,65330,143115,162808,65283
20050,1373,1329,1323,1372,65330,143115,162808,65283
20050,1370,1327,1322,1369,65330,143115,162808,65283
20050,1370,1318,1319,1371,65330,143115,162808,65283
20050,1369,1317,1329,1371,65330,143115,162808,65283
19683,1368,1325,1335,1376,65330,143115,162808,65283
20050,1369,1330,1341,1374,65330,143115,162808,65283
20050,1372,1331,1345,1375,65330,143115,162808,65283
20050,1370,1337,1340,1368,65330,143115,162808,65283
20050,1373,1331,1340,1369,65330,143115,162808,65283
20050,1374,1330,1332,1370,65330,143115,162808,65283
20050,1374,1322,1326,1371,65330,143115,162808,65283
20050,1369,1321,1324,1369,65330,143115,162808,65283
19683,1370,1312,1318,1370,65330,143115,162808,65283
20050,1372,1317,1319,1372,65330,143115,162808,65283
20050,1370,1315,1312,1370,65330,143115,162808,65283
20050,1369,1315,1312,1370,65330,143115,162808,65283
20050,1369,1308,1299,1367,65330,143115,162808,65283
20050,1368,1312,1296,1369,65330,143115,162808,65283
20050,1369,1308,1297,1367,65330,143115,162808,65283
19683,1370,1309,1295,1371,65330,143115,162808,65283
20050,1366,1299,1291,1367,65330,143115,162808,65283
20050,1370,1304,1296,1371,65330,143115,162808,65283
20050,1370,1303,1295,1374,65330,143115,162808,65283
20050,1369,1309,1292,1374,65330,143115,162808,65283
20050,1369,1310,1294,1369,65330,143115,162808,65283
20050,1370,1314,1293,1370,65330,143115,162808,65283
20050,1372,1307,1290,1370,65330,143115,162808,65283
19683,1373,1305,1282,1371,65330,143115,162808,65283
20050,1372,1302,1283,1370,65330,143115,162808,65283
20050,1368,1297,1278,1367,65330,143115,162808,65283
20050,1369,1292,1280,1368,65330,143115,162808,65283
20050,1370,1296,1277,1370,65330,143115,162808,65283
20050,1370,1300,1276,1371,65330,143115,162808,65283
20050,1367,1298,1269,1367,65330,143115,162808,65283
19683,1367,1297,1265,1368,65330,143115,162808,65283
20050,1367,1298,1266,1370,65330,143115,162808,65283
20050,1370,1299,1275,1369,65330,143115,162808,65283
20050,1368,1305,1290,1367,65330,143115,162808,65283
20050,1371,1315,1321,1370,65330,143115,162808,65283
20050,1372,1321,1338,1370,65330,143115,162808,65283
20050,1371,1332,1345,1372,65330,143115,162808,65283
20050,1371,1328,1341,1372,65330,143115,162808,65283
19683,1369,1332,1343,1376,65330,143115,162808,65283
20050,1373,1333,1341,1369,65330,143115,162808,65283
20050,1375,1326,1330,1367,65330,143115,162808,65283
20050,1375,1319,1315,1371,65330,143115,162808,65283
20050,1374,1317,1307,1369,65330,143115,162808,65283
20050,1368,1306,1298,1369,65330,143115,162808,65283
20050,1372,1307,1298,1371,65330,143115,162808,65283
19683,1368,1307,1296,1371,65330,143115,162808,65283
20050,1367,1311,1297,1367,65330,143115,162808,65283
20050,1371,1311,1297,1371,65330,143115,162808,65283
20050,1370,1320,1299,1369,65330,143115,162808,65283
20050,1369,1317,1309,1371,65330,143115,162808,65283
20050,1370,1324,1314,1368,65330,143115,162808,65283
20050,1370,1318,1317,1372,65330,143115,162808,65283
20050,1371,1317,1317,1368,65330,143115,162808,65283
19683,1375,1316,1315,1372,65330,143115,162808,65283
20050,1369,1319,1309,1372,65330,143115,162808,65283
20050,1368,1316,1300,1373,65330,143115,162808,65283
20050,1370,1320,1300,1375,65330,143115,162808,65283
20050,1369,1311,1292,1369,65330,143115,162808,65283
20050,1373,1309,1288,1369,65330,143115,162808,65283
20050,1371,1301,1278,1370,65330,143115,162808,65283
19683,1374,1304,1279,1368,65330,143115,162808,65283
20050,1368,1297,1276,1369,65330,143115,162808,65283
20050,1369,1299,1275,1370,65330,143115,162808,65283
20050,1366,1298,1276,1371,65330,143115,162808,65283
20050,1369,1305,1279,1369,65330,143115,162808,65283
20050,1370,1299,1272,1371,65330,143115,162808,65283
20050,1371,1304,1269,1373,65330,143115,162808,65283
20050,1371,1299,1269,1368,65330,143115,162808,65283
19683,1368,1303,1270,1366,65330,143115,162808,65283
20050,1368,1298,1268,1370,65330,143115,162808,65283
20050,1371,1300,1270,1372,65330,143115,162808,65283
20050,1367,1300,1271,1369,65330,143115,162808,65283
20050,1366,1305,1269,1374,65330,143115,162808,65283
20050,1367,1302,1261,1374,65330,143115,162808,65283
20050,1370,1307,1266,1376,65330,143115,162808,65283
19683,1368,1300,1264,1368,65330,143115,162808,65283
20050,1374,1299,1259,1373,65330,143115,162808,65283
20050,1373,1297,1256,1373,65330,143115,162808,65283
20050,1377,1295,1258,1371,65330,143115,162808,65283
20050,1371,1298,1279,1370,65330,143115,162808,65283
20050,1368,1313,1299,1373,65330,143115,162808,65283
20080,1373,1325,1322,1375,65330,143256,163184,65283
19683,1372,1335,1330,1376,65330,143256,163184,65283
20050,1367,1341,1331,1377,65330,143256,163184,65283
20050,1370,1336,1332,1374,65330,143256,163184,65283
20050,1373,1331,1327,1371,65330,143256,163184,65283
20050,1375,1326,1319,1373,65330,143256,163184,65283
20050,1372,1321,1307,1370,65330,143256,163184,65283
20050,1373,1317,1299,1369,65330,143256,163184,65283
20050,1369,1314,1298,1372,65330,143256,163184,65283
19683,1371,1310,1289,1369,65330,143256,163184,65283
20050,1369,1316,1284,1368,65330,143256,163184,65283
20050,1369,1312,1285,1370,65330,143256,163184,65283
20050,1368,1318,1286,1369,65330,143256,163184,65283
20050,1369,1314,1297,1369,65330,143256,163184,65283
20050,1371,1320,1301,1373,65330,143256,163184,65283
20050,1370,1322,1307,1371,65330,143256,163184,65283
19683,1369,1323,1314,1370,65330,143256,163184,65283
20050,1371,1320,1313,1371,65330,143256,163184,65283
20050,1368,1329,1311,1372,65330,143256,163184,65283
20050,1368,1326,1302,1372,65330,143256,163184,65283
20050,1366,1329,1295,1373,65330,143256,163184,65283
20050,1368,1323,1296,1374,65330,143256,163184,65283
20050,1373,1318,1296,1369,65330,143256,163184,65283
20050,1372,1312,1286,1368,65330,143256,163184,65283
19683,1370,1309,1283,1371,65330,143256,163184,65283
20050,1368,1310,1280,1371,65330,143256,163184,65283
20050,1368,1314,1279,1370,65330,143256,163184,65283
20050,1371,1313,1279,1369,65330,143256,163184,65283
20050,1369,1316,1277,1370,65330,143256,163184,65283
20050,1371,1311,1273,1369,65330,143256,163184,65283
20050,1368,1314,1272,1370,65330,143256,163184,65283
20050,1373,1310,1274,1371,65330,143256,163184,65283
19683,1370,1309,1274,1370,65330,143256,163184,65283
20050,1369,1310,1269,1372,65330,143256,163184,65283
20050,1367,1310,1277,1369,65330,143256,163184,65283
20050,1371,1313,1278,1370,65330,143256,163184,65283
20050,1371,1315,1273,1371,65330,143256,163184,65283
20050,1366,1317,1268,1373,65330,143256,163184,65283
20050,1368,1318,1267,1373,65330,143256,163184,65283
19683,1368,1310,1269,1373,65330,143256,163184,65283
20050,1367,1309,1267,1368,65330,143256,163184,65283
20050,1374,1302,1262,1369,65330,143256,163184,65283
20050,1375,1303,1255,1371,65330,143256,163184,65283
20050,1366,1303,1263,1370,65330,143256,163184,65283
20050,1369,1306,1268,1366,65330,143256,163184,65283
20050,1367,1317,1289,1370,65330,143256,163184,65283
20050,1369,1326,1309,1370,65330,143256,163184,65283
19683,1371,1336,1328,1371,65330,143256,163184,65283
20050,1371,1336,1337,1373,65330,143256,163184,65283
20050,1371,1336,1338,1369,65330,143256,163184,65283
20050,1370,1329,1333,1372,65330,143256,163184,65283
20050,1373,1334,1333,1371,65330,143256,163184,65283
20050,1370,1329,1324,1373,65330,143256,163184,65283
20050,1368,1332,1317,1369,65330,143256,163184,65283
19683,1371,1325,1308,1369,65330,143256,163184,65283
20050,1369,1327,1300,1373,65330,143256,163184,65283
20050,1369,1325,1293,1375,65330,143256,163184,65283
20050,1370,1323,1295,1372,65330,143256,163184,65283
20050,1369,1319,1293,1370,65330,143256,163184,65283
20050,1373,1316,1299,1369,65330,143256,163184,65283
20050,1374,1319,1304,1371,65330,143256,163184,65283
20050,1371,1324,1316,1372,65330,143256,163184,65283
19683,1369,1325,1319,1367,65330,143256,163184,65283
20050,1366,1332,1319,1372,65330,143256,163184,65283
20050,1371,1327,1316,1372,65330,143256,163184,65283
20050,1372,1331,1309,1371,65330,143256,163184,65283
20050,1368,1327,1301,1369,65330,143256,163184,65283
20050,1370,1323,1300,1369,65330,143256,163184,65283
20050,1370,1316,1298,1369,65330,143256,163184,65283
19683,1369,1319,1295,1370,65330,143256,163184,65283
20050,1371,1320,1291,1371,65330,143256,163184,65283
20050,1368,1319,1291,1368,65330,143256,163184,65283
20050,1367,1319,1283,1368,65330,143256,163184,65283
20050,1367,1322,1280,1374,65330,143256,163184,65283
20050,1368,1317,1278,1373,65330,143256,163184,65283
20050,1371,1315,1282,1368,65330,143256,163184,65283
20050,1367,1309,1280,1368,65330,143256,163184,65283
19683,1373,1312,1280,1367,65330,143256,163184,65283
20050,1366,1312,1277,1367,65330,143256,163184,65283
20050,1369,1311,1280,1365,65330,143256,163184,65283
20050,1367,1315,1283,1370,65330,143256,163184,65283
20050,1369,1319,1282,1368,65330,143256,163184,65283
20050,1368,1320,1275,1372,65330,143256,163184,65283
20050,1370,1318,1270,1370,65330,143256,163184,65283
19683,1365,1311,1269,1368,65330,143256,163184,65283
20050,1371,1312,1270,1368,65330,143256,163184,65283
20050,1369,1308,1268,1367,65330,143256,163184,65283
20050,1368,1309,1268,1368,65330,143256,163184,65283
20050,1369,1308,1263,1367,65330,143256,163184,65283
20050,1369,1313,1268,1371,65330,143256,163184,65283
20050,1369,1317,1267,1368,65330,143256,163184,65283
20050,1369,1323,1279,1375,65330,143256,163184,65283
19683,1370,1329,1305,1368,65330,143256,163184,65283
20050,1370,1336,1329,1370,65330,143256,163184,65283
20050,1368,1339,1341,1371,65330,143256,163184,65283
20050,1375,1342,1346,1369,65330,143256,163184,65283
20050,1372,1342,1349,1370,65330,143256,163184,65283
20050,1371,1339,1342,1370,65330,143256,163184,65283
20050,1370,1343,1340,1371,65330,143256,163184,65283
19683,1370,1342,1325,1369,65330,143256,163184,65283
20050,1372,1334,1317,1368,65330,143256,163184,65283
20050,1369,1329,1306,1370,65330,143256,163184,65283
20050,1371,1325,1302,1369,65330,143256,163184,65283
20050,1370,1320,1297,1371,65330,143256,163184,65283
20050,1368,1318,1302,1368,65330,143256,163184,65283
20050,1367,1322,1303,1371,65330,143256,163184,65283
20050,1368,1326,1309,1369,65330,143256,163184,65283
19683,1369,1333,1313,1372,65330,143256,163184,65283
20050,1370,1342,1320,1369,65330,143256,163184,65283
20050,1366,1337,1320,1373,65330,143256,163184,65283
20050,1368,1342,1321,1369,65330,143256,163184,65283
20050,1369,1334,1321,1367,65330,143256,163184,65283
20050,1372,1332,1315,1374,65330,143256,163184,65283
20050,1372,1327,1310,1371,65330,143256,163184,65283
19683,1371,1330,1306,1369,65330,143256,163184,65283
20050,1366,1322,1305,1372,65330,143256,163184,65283
20050,1371,1328,1296,1367,65330,143256,163184,65283
20050,1368,1318,1288,1369,65330,143256,163184,65283
20050,1368,1322,1288,1370,65330,143256,163184,65283
20050,1369,1317,1284,1371,65330,143256,163184,65283
20050,1371,1319,1277,1370,65330,143256,163184,65283
20050,1370,1311,1279,1370,65330,143256,163184,65283
19683,1369,1317,1286,1369,65330,143256,163184,65283
20050,1371,1317,1286,1373,65330,143256,163184,65283
20050,1371,1326,1288,1372,65330,143256,163184,65283
20050,1370,1322,1278,1371,65330,143256,163184,65283
20050,1369,1326,1281,1367,65330,143256,163184,65283
20050,1368,1318,1279,1374,65330,143256,163184,65283
20050,1370,1322,1278,1371,65330,143256,163184,65283
20050,1368,1315,1280,1369,65330,143256,163184,65283
19683,1369,1312,1277,1370,65330,143256,163184,65283
20050,1368,1311,1274,1372,65330,143256,163184,65283
20050,1369,1313,1275,1369,65330,143256,163184,65283
20050,1369,1312,1268,1369,65330,143256,163184,65283
20050,1370,1314,1266,1368,65330,143256,163184,65283
20050,1368,1313,1261,1369,65330,143256,163184,65283
20050,1369,1310,1259,1369,65330,143256,163184,65283
19683,1370,1307,1264,1373,65330,143256,163184,65283
20050,1369,1309,1274,1371,65330,143256,163184,65283
20050,1371,1318,1293,1368,65330,143256,163184,65283
20050,1368,1332,1318,1371,65330,143256,163184,65283
20050,1371,1337,1334,1373,65330,143256,163184,65283
20050,1370,1339,1337,1369,65330,143256,163184,65283
20050,1369,1349,1330,1372,65330,143256,163184,65283
20050,1372,1346,1329,1371,65330,143256,163184,65283
19683,1371,1342,1322,1370,65330,143256,163184,65283
20050,1369,1332,1316,1366,65330,143256,163184,65283
20050,1370,1328,1304,1368,65330,143256,163184,65283
20050,1371,1323,1298,1371,65330,143256,163184,65283
20050,1368,1321,1291,1369,65330,143256,163184,65283
20080,1369,1316,1286,1369,65330,143068,164077,65283
20050,1367,1312,1304,1369,65330,143068,164077,65283
19683,1369,1314,1301,1372,65330,143068,164077,65283
20050,1368,1322,1307,1371,65330,143068,164077,65283
20050,1368,1320,1312,1371,65330,143068,164077,65283
20050,1371,1325,1321,1371,65330,143068,164077,65283
20050,1370,1320,1330,1371,65330,143068,164077,65283
20050,1371,1318,1328,1367,65330,143068,164077,65283
20050,1370,1316,1327,1374,65330,143068,164077,65283
19683,1372,1323,1323,1370,65330,143068,164077,65283
20050,1368,1317,1317,1368,65330,143068,164077,65283
20050,1372,1322,1312,1369,65330,143068,164077,65283
20050,1375,1315,1305,1371,65330,143068,164077,65283
20050,1367,1314,1299,1369,65330,143068,164077,65283
20050,1370,1303,1296,1368,65330,143068,164077,65283
20050,1369,1307,1293,1369,65330,143068,164077,65283
20050,1368,1299,1293,1370,65330,143068,164077,65283
19683,1369,1304,1296,1370,65330,143068,164077,65283
20050,1367,1305,1293,1368,65330,143068,164077,65283
20050,1370,1306,1296,1369,65330,143068,164077,65283
20050,1367,1311,1290,1370,65330,143068,164077,65283
20050,1369,1312,1292,1368,65330,143068,164077,65283
20050,1369,1308,1294,1368,65330,143068,164077,65283
20050,1367,1311,1292,1371,65330,143068,164077,65283
19683,1371,1303,1296,1373,65330,143068,164077,65283
20050,1369,1308,1296,1371,65330,143068,164077,65283
20050,1369,1305,1292,1374,65330,143068,164077,65283
20050,1367,1304,1292,1371,65330,143068,164077,65283
20050,1367,1303,1292,1368,65330,143068,164077,65283
20050,1373,1311,1292,1373,65330,143068,164077,65283
20050,1372,1305,1283,1370,65330,143068,164077,65283
20050,1368,1304,1279,1367,65330,143068,164077,65283
19683,1369,1300,1282,1365,65330,143068,164077,65283
20050,1370,1301,1294,1371,65330,143068,164077,65283
20050,1367,1309,1320,1371,65330,143068,164077,65283
20050,1369,1322,1342,1372,65330,143068,164077,65283
20050,1371,1328,1357,1369,65330,143068,164077,65283
20050,1370,1337,1366,1372,65330,143068,164077,65283
20050,1370,1344,1362,1371,65330,143068,164077,65283
19683,1373,1341,1360,1369,65330,143068,164077,65283
20050,1368,1331,1354,1369,65330,143068,164077,65283
20050,1368,1327,1345,1370,65330,143068,164077,65283
20050,1370,1324,1343,1371,65330,143068,164077,65283
20050,1370,1321,1329,1371,65330,143068,164077,65283
20050,1368,1319,1328,1374,65330,143068,164077,65283
20050,1367,1316,1324,1369,65330,143068,164077,65283
20050,1369,1321,1322,1369,65330,143068,164077,65283
19683,1374,1320,1322,1369,65330,143068,164077,65283
20050,1375,1323,1326,1370,65330,143068,164077,65283
20050,1370,1320,1336,1371,65330,143068,164077,65283
20050,1372,1324,1345,1369,65330,143068,164077,65283
20050,1370,1322,1348,1373,65330,143068,164077,65283
20050,1372,1324,1352,1373,65330,143068,164077,65283
20050,1371,1324,1347,1369,65330,143068,164077,65283
19683,1371,1327,1346,1371,65330,143068,164077,65283
20050,1372,1328,1341,1372,65330,143068,164077,65283
20050,1368,1330,1337,1370,65330,143068,164077,65283
20050,1366,1319,1331,1370,65330,143068,164077,65283
20050,1367,1322,1327,1371,65330,143068,164077,65283
20050,1369,1314,1323,1370,65330,143068,164077,65283
20050,1369,1313,1320,1371,65330,143068,164077,65283
20050,1366,1308,1321,1373,65330,143068,164077,65283
19683,1368,1314,1319,1374,65330,143068,164077,65283
20050,1367,1310,1319,1369,65330,143068,164077,65283
20050,1368,1319,1316,1368,65330,143068,164077,65283
20050,1373,1314,1310,1365,65330,143068,164077,65283
20050,1373,1317,1312,1370,65330,143068,164077,65283
20050,1370,1308,1316,1371,65330,143068,164077,65283
20050,1368,1309,1310,1367,65330,143068,164077,65283
19683,1370,1303,1312,1367,65330,143068,164077,65283
20050,1368,1304,1315,1368,65330,143068,164077,65283
20050,1371,1311,1316,1367,65330,143068,164077,65283
20050,1369,1313,1314,1372,65330,143068,164077,65283
20050,1369,1307,1309,1369,65330,143068,164077,65283
20050,1370,1316,1305,1370,65330,143068,164077,65283
20050,1371,1306,1301,1371,65330,143068,164077,65283
20050,1367,1305,1300,1370,65330,143068,164077,65283
19683,1369,1301,1304,1370,65330,143068,164077,65283
20050,1373,1306,1312,1369,65330,143068,164077,65283
20050,1367,1315,1337,1375,65330,143068,164077,65283
20050,1374,1330,1364,1375,65330,143068,164077,65283
20050,1370,1336,1379,1371,65330,143068,164077,65283
20050,1374,1343,1386,1372,65330,143068,164077,65283
20050,1376,1343,1386,1372,65330,143068,164077,65283
19683,1376,1342,1386,1373,65330,143068,164077,65283
20050,1370,1333,1378,1371,65330,143068,164077,65283
20050,1371,1325,1373,1368,65330,143068,164077,65283
20050,1370,1323,1370,1367,65330,143068,164077,65283
20050,1369,1326,1360,1369,65330,143068,164077,65283
20050,1370,1323,1354,1371,65330,143068,164077,65283
20050,1371,1326,1351,1370,65330,143068,164077,65283
20050,1369,1323,1342,1371,65330,143068,164077,65283
19683,1370,1329,1349,1370,65330,143068,164077,65283
20050,1371,1325,1348,1368,65330,143068,164077,65283
20050,1368,1321,1357,1370,65330,143068,164077,65283
20050,1371,1325,1365,1370,65330,143068,164077,65283
20050,1368,1327,1369,1373,65330,143068,164077,65283
20050,1371,1332,1370,1374,65330,143068,164077,65283
20050,1371,1334,1368,1372,65330,143068,164077,65283
20050,1371,1334,1368,1370,65330,143068,164077,65283
19683,1374,1334,1360,1370,65330,143068,164077,65283
20050,1374,1330,1354,1369,65330,143068,164077,65283
20050,1375,1324,1349,1371,65330,143068,164077,65283
20050,1368,1320,1343,1369,65330,143068,164077,65283
20050,1368,1310,1337,1369,65330,143068,164077,65283
20050,1369,1315,1342,1370,65330,143068,164077,65283
20050,1372,1313,1341,1370,65330,143068,164077,65283
19683,1368,1314,1335,1368,65330,143068,164077,65283
20050,1367,1315,1330,1367,65330,143068,164077,65283
20050,1369,1318,1330,1368,65330,143068,164077,65283
20050,1373,1317,1329,1370,65330,143068,164077,65283
20050,1371,1317,1328,1368,65330,143068,164077,65283
20050,1370,1311,1325,1371,65330,143068,164077,65283
20050,1369,1310,1333,1372,65330,143068,164077,65283
20050,1367,1306,1332,1373,65330,143068,164077,65283
19683,1369,1312,1329,1376,65330,143068,164077,65283
20050,1370,1313,1329,1373,65330,143068,164077,65283
20050,1371,1316,1326,1369,65330,143068,164077,65283
20050,1373,1311,1326,1367,65330,143068,164077,65283
20050,1374,1312,1319,1368,65330,143068,164077,65283
20050,1371,1305,1315,1366,65330,143068,164077,65283
20050,1368,1303,1311,1369,65330,143068,164077,65283
19683,1368,1300,1309,1369,65330,143068,164077,65283
20050,1370,1301,1317,1369,65330,143068,164077,65283
20050,1364,1303,1317,1368,65330,143068,164077,65283
20050,1367,1309,1331,1369,65330,143068,164077,65283
20050,1369,1321,1357,1373,65330,143068,164077,65283
20050,1371,1333,1374,1370,65330,143068,164077,65283
20050,1370,1335,1389,1370,65330,143068,164077,65283
20050,1370,1338,1400,1370,65330,143068,164077,65283
19683,1369,1331,1399,1372,65330,143068,164077,65283
20050,1370,1333,1396,1376,65330,143068,164077,65283
20050,1370,1328,1391,1373,65330,143068,164077,65283
20050,1370,1329,1379,1374,65330,143068,164077,65283
20050,1372,1325,1373,1372,65330,143068,164077,65283
20050,1372,1325,1366,1371,65330,143068,164077,65283
20050,1373,1315,1355,1370,65330,143068,164077,65283
19683,1372,1314,1347,1371,65330,143068,164077,65283
20050,1372,1309,1344,1371,65330,143068,164077,65283
20050,1372,1305,1345,1370,65330,143068,164077,65283
20050,1370,1309,1356,1369,65330,143068,164077,65283
20050,1371,1315,1361,1368,65330,143068,164077,65283
20050,1370,1321,1365,1369,65330,143068,164077,65283
20050,1368,1321,1368,1372,65330,143068,164077,65283
20050,1369,1324,1361,1370,65330,143068,164077,65283
19683,1370,1321,1359,1369,65330,143068,164077,65283
20050,1369,1321,1354,1369,65330,143068,164077,65283
20050,1368,1312,1349,1372,65330,143068,164077,65283
20050,1370,1313,1349,1371,65330,143068,164077,65283
20050,1371,1307,1341,1372,65330,143068,164077,65283
20080,1369,1303,1334,1369,65283,143068,163231,65283
20050,1368,1300,1315,1370,65283,143068,163231,65283
19683,1373,1301,1313,1372,65283,143068,163231,65283
20050,1369,1302,1305,1370,65283,143068,163231,65283
20050,1371,1304,1299,1369,65283,143068,163231,65283
20050,1367,1297,1298,1368,65283,143068,163231,65283
20050,1369,1300,1298,1368,65283,143068,163231,65283
20050,1369,1291,1297,1369,65283,143068,163231,65283
20050,1369,1290,1298,1367,65283,143068,163231,65283
19683,1367,1288,1300,1370,65283,143068,163231,65283
20050,1369,1296,1295,1377,65283,143068,163231,65283
20050,1371,1298,1293,1372,65283,143068,163231,65283
20050,1368,1294,1290,1371,65283,143068,163231,65283
20050,1370,1295,1285,1370,65283,143068,163231,65283
20050,1371,1292,1282,1369,65283,143068,163231,65283
20050,1374,1282,1277,1369,65283,143068,163231,65283
20050,1372,1282,1272,1367,65283,143068,163231,65283
19683,1369,1271,1271,1369,65283,143068,163231,65283
20050,1369,1280,1269,1368,65283,143068,163231,65283
20050,1371,1277,1267,1371,65283,143068,163231,65283
20050,1370,1277,1268,1371,65283,143068,163231,65283
20050,1369,1280,1264,1368,65283,143068,163231,65283
20050,1369,1289,1286,1370,65283,143068,163231,65283
20050,1370,1300,1311,1372,65283,143068,163231,65283
19683,1371,1312,1326,1368,65283,143068,163231,65283
20050,1370,1308,1336,1368,65283,143068,163231,65283
20050,1367,1313,1339,1369,65283,143068,163231,65283
20050,1370,1315,1342,1370,65283,143068,163231,65283
20050,1371,1316,1335,1374,65283,143068,163231,65283
20050,1370,1314,1322,1373,65283,143068,163231,65283
20050,1368,1308,1319,1375,65283,143068,163231,65283
20050,1372,1304,1311,1369,65283,143068,163231,65283
19683,1375,1300,1302,1372,65283,143068,163231,65283
20050,1374,1289,1288,1368,65283,143068,163231,65283
20050,1371,1285,1285,1369,65283,143068,163231,65283
20050,1369,1285,1288,1371,65283,143068,163231,65283
20050,1366,1291,1295,1369,65283,143068,163231,65283
20050,1371,1297,1302,1368,65283,143068,163231,65283
20050,1368,1302,1306,1369,65283,143068,163231,65283
19683,1368,1304,1314,1369,65283,143068,163231,65283
20050,1368,1310,1318,1369,65283,143068,163231,65283
20050,1371,1305,1314,1371,65283,143068,163231,65283
20050,1371,1301,1309,1368,65283,143068,163231,65283
20050,1369,1301,1310,1371,65283,143068,163231,65283
20050,1367,1300,1312,1370,65283,143068,163231,65283
20050,1370,1303,1304,1371,65283,143068,163231,65283
20050,1369,1299,1296,1373,65283,143068,163231,65283
19683,1367,1301,1297,1372,65283,143068,163231,65283
20050,1373,1301,1295,1373,65283,143068,163231,65283
20050,1367,1296,1292,1370,65283,143068,163231,65283
20050,1374,1288,1289,1368,65283,143068,163231,65283
20050,1374,1288,1275,1371,65283,143068,163231,65283
20050,1370,1279,1279,1369,65283,143068,163231,65283
20050,1370,1284,1284,1369,65283,143068,163231,65283
19683,1369,1282,1280,1367,65283,143068,163231,65283
20050,1369,1288,1282,1369,65283,143068,163231,65283
20050,1369,1285,1278,1368,65283,143068,163231,65283
20050,1369,1292,1276,1371,65283,143068,163231,65283
20050,1369,1288,1277,1368,65283,143068,163231,65283
20050,1367,1286,1273,1368,65283,143068,163231,65283
20050,1368,1281,1270,1366,65283,143068,163231,65283
20050,1369,1277,1276,1370,65283,143068,163231,65283
19683,1371,1283,1273,1373,65283,143068,163231,65283
20050,1367,1284,1269,1369,65283,143068,163231,65283
20050,1367,1281,1267,1373,65283,143068,163231,65283
20050,1366,1287,1276,1373,65283,143068,163231,65283
20050,1372,1293,1290,1370,65283,143068,163231,65283
20050,1371,1300,1313,1368,65283,143068,163231,65283
20050,1374,1306,1333,1369,65283,143068,163231,65283
19683,1375,1314,1343,1371,65283,143068,163231,65283
20050,1371,1310,1350,1373,65283,143068,163231,65283
20050,1369,1318,1353,1370,65283,143068,163231,65283
20050,1371,1316,1346,1370,65283,143068,163231,65283
20050,1366,1313,1338,1371,65283,143068,163231,65283
20050,1368,1306,1328,1372,65283,143068,163231,65283
20050,1371,1307,1316,1373,65283,143068,163231,65283
20050,1371,1297,1307,1369,65283,143068,163231,65283
19683,1366,1291,1300,1372,65283,143068,163231,65283
20050,1370,1288,1295,1369,65283,143068,163231,65283
20050,1371,1292,1303,1370,65283,143068,163231,65283
20050,1369,1292,1303,1371,65283,143068,163231,65283
20050,1368,1299,1309,1367,65283,143068,163231,65283
20050,1371,1312,1313,1377,65283,143068,163231,65283
20050,1372,1312,1323,1373,65283,143068,163231,65283
20050,1368,1311,1328,1372,65283,143068,163231,65283
19683,1369,1308,1322,1369,65283,143068,163231,65283
20050,1375,1303,1319,1372,65283,143068,163231,65283
20050,1376,1300,1313,1367,65283,143068,163231,65283
20050,1369,1297,1316,1369,65283,143068,163231,65283
20050,1369,1299,1306,1367,65283,143068,163231,65283
20050,1370,1299,1304,1374,65283,143068,163231,65283
20050,1365,1296,1296,1369,65283,143068,163231,65283
19683,1369,1293,1293,1371,65283,143068,163231,65283
20050,1365,1297,1290,1368,65283,143068,163231,65283
20050,1368,1288,1289,1370,65283,143068,163231,65283
20050,1369,1286,1286,1370,65283,143068,163231,65283
20050,1369,1290,1291,1371,65283,143068,163231,65283
20050,1369,1285,1290,1369,65283,143068,163231,65283
20050,1372,1291,1292,1370,65283,143068,163231,65283
20050,1369,1291,1286,1369,65283,143068,163231,65283
19683,1366,1295,1285,1373,65283,143068,163231,65283
20050,1369,1296,1289,1370,65283,143068,163231,65283
20050,1368,1293,1288,1366,65283,143068,163231,65283
20050,1368,1287,1285,1369,65283,143068,163231,65283
20050,1376,1284,1286,1370,65283,143068,163231,65283
20050,1376,1282,1280,1370,65283,143068,163231,65283
20050,1366,1280,1278,1368,65283,143068,163231,65283
19683,1365,1279,1278,1368,65283,143068,163231,65283
20050,1368,1286,1280,1370,65283,143068,163231,65283
20050,1367,1284,1276,1370,65283,143068,163231,65283
20050,1367,1294,1292,1368,65283,143068,163231,65283
20050,1368,1300,1317,1368,65283,143068,163231,65283
20050,1371,1309,1339,1368,65283,143068,163231,65283
20050,1368,1311,1353,1372,65283,143068,163231,65283
20050,1371,1314,1362,1370,65283,143068,163231,65283
19683,1369,1316,1363,1369,65283,143068,163231,65283
20050,1371,1325,1359,1371,65283,143068,163231,65283
20050,1370,1319,1348,1372,65283,143068,163231,65283
20050,1369,1321,1344,1377,65283,143068,163231,65283
20050,1368,1312,1331,1375,65283,143068,163231,65283
20050,1369,1304,1325,1369,65283,143068,163231,65283
20050,1370,1296,1320,1368,65283,143068,163231,65283
19683,1373,1298,1312,1369,65283,143068,163231,65283
20050,1370,1292,1306,1369,65283,143068,163231,65283
20050,1367,1299,1318,1371,65283,143068,163231,65283
20050,1374,1302,1326,1371,65283,143068,163231,65283
20050,1370,1307,1331,1371,65283,143068,163231,65283
20050,1373,1311,1330,1367,65283,143068,163231,65283
20050,1368,1312,1333,1371,65283,143068,163231,65283
20050,1371,1312,1334,1371,65283,143068,163231,65283
19683,1371,1310,1332,1372,65283,143068,163231,65283
20050,1371,1302,1327,1369,65283,143068,163231,65283
20050,1369,1306,1327,1370,65283,143068,163231,65283
20050,1368,1305,1323,1371,65283,143068,163231,65283
20050,1370,1304,1320,1370,65283,143068,163231,65283
20050,1369,1306,1308,1370,65283,143068,163231,65283
20050,1368,1307,1305,1373,65283,143068,163231,65283
19683,1370,1299,1305,1370,65283,143068,163231,65283
20050,1370,1298,1305,1372,65283,143068,163231,65283
20050,1368,1290,1300,1369,65283,143068,163231,65283
20050,1371,1291,1299,1366,65283,143068,163231,65283
20050,1366,1289,1297,1369,65283,143068,163231,65283
20050,1368,1295,1298,1368,65283,143068,163231,65283
20050,1370,1295,1298,1368,65283,143068,163231,65283
20050,1367,1293,1290,1368,65283,143068,163231,65283
19683,1371,1293,1288,1369,65283,143068,163231,65283
20050,1370,1293,1292,1369,65283,143068,163231,65283
20050,1369,1289,1285,1371,65283,143068,163231,65283
20050,1370,1282,1282,1366,65283,143068,163231,65283
20050,1367,1283,1283,1369,65283,143068,163231,65283
20080,1374,1284,1281,1365,65283,144055,163748,65236
20050,1370,1310,1289,1362,65283,144055,163748,65236
19683,1368,1308,1287,1361,65283,144055,163748,65236
20050,1367,1310,1290,1362,65283,144055,163748,65236
20050,1368,1315,1301,1366,65283,144055,163748,65236
20050,1367,1332,1327,1365,65283,144055,163748,65236
20050,1370,1330,1345,1365,65283,144055,163748,65236
20050,1370,1336,1356,1366,65283,144055,163748,65236
20050,1370,1335,1360,1368,65283,144055,163748,65236
19683,1371,1340,1364,1364,65283,144055,163748,65236
20050,1371,1337,1359,1363,65283,144055,163748,65236
20050,1370,1337,1346,1367,65283,144055,163748,65236
20050,1370,1332,1333,1366,65283,144055,163748,65236
20050,1371,1334,1324,1365,65283,144055,163748,65236
20050,1369,1326,1313,1368,65283,144055,163748,65236
20050,1368,1319,1310,1366,65283,144055,163748,65236
20050,1368,1309,1303,1363,65283,144055,163748,65236
19683,1370,1311,1307,1366,65283,144055,163748,65236
20050,1369,1312,1309,1368,65283,144055,163748,65236
20050,1369,1322,1315,1363,65283,144055,163748,65236
20050,1364,1324,1320,1367,65283,144055,163748,65236
20050,1372,1328,1327,1367,65283,144055,163748,65236
20050,1368,1330,1325,1364,65283,144055,163748,65236
20050,1372,1329,1318,1364,65283,144055,163748,65236
19683,1369,1321,1318,1363,65283,144055,163748,65236
20050,1369,1323,1314,1364,65283,144055,163748,65236
20050,1371,1313,1307,1367,65283,144055,163748,65236
20050,1367,1315,1307,1366,65283,144055,163748,65236
20050,1372,1312,1303,1363,65283,144055,163748,65236
20050,1366,1316,1299,1365,65283,144055,163748,65236
20050,1367,1319,1290,1364,65283,144055,163748,65236
20050,1370,1320,1285,1364,65283,144055,163748,65236
19683,1371,1315,1283,1363,65283,144055,163748,65236
20050,1368,1309,1285,1366,65283,144055,163748,65236
20050,1368,1306,1282,1366,65283,144055,163748,65236
20050,1369,1303,1286,1364,65283,144055,163748,65236
20050,1366,1305,1286,1366,65283,144055,163748,65236
20050,1370,1311,1289,1363,65283,144055,163748,65236
20050,1370,1315,1292,1364,65283,144055,163748,65236
19683,1372,1313,1284,1364,65283,144055,163748,65236
20324,1369,1309,1289,1363,65283,144055,163748,65236
19683,1373,1305,1279,1361,65283,144055,163748,65236
20050,1368,1304,1280,1365,65283,144055,163748,65236
20050,1366,1305,1283,1365,65283,144055,163748,65236
20050,1368,1306,1274,1364,65283,144055,163748,65236
20050,1367,1305,1275,1363,65283,144055,163748,65236
20050,1367,1307,1273,1364,65283,144055,163748,65236
20050,1369,1314,1284,1365,65283,144055,163748,65236
20050,1373,1318,1305,1362,65283,144055,163748,65236
19958,1370,1324,1328,1363,65283,144055,163748,65236
20050,1368,1331,1343,1367,65283,144055,163748,65236
19958,1376,1345,1348,1367,65283,144055,163748,65236
20050,1375,1343,1347,1365,65283,144055,163748,65236
19958,1371,1333,1346,1368,65283,144055,163748,65236
20050,1371,1337,1341,1366,65283,144055,163748,65236
19958,1371,1338,1326,1371,65283,144055,163748,65236
19683,1370,1331,1326,1366,65283,144055,163748,65236
20050,1370,1331,1316,1368,65283,144055,163748,65236
20050,1367,1319,1307,1364,65283,144055,163748,65236
20050,1371,1320,1300,1364,65283,144055,163748,65236
20050,1370,1321,1308,1366,65283,144055,163748,65236
20050,1371,1324,1312,1367,65283,144055,163748,65236
20050,1370,1328,1321,1361,65283,144055,163748,65236
20050,1371,1333,1326,1366,65283,144055,163748,65236
19958,1375,1329,1329,1364,65283,144055,163748,65236
20050,1374,1335,1334,1362,65283,144055,163748,65236
19958,1370,1336,1338,1368,65283,144055,163748,65236
20050,1368,1346,1337,1364,65283,144055,163748,65236
19683,1373,1339,1331,1366,65283,144055,163748,65236
20050,1373,1338,1323,1364,65283,144055,163748,65236
20050,1373,1329,1318,1362,65283,144055,163748,65236
20050,1368,1328,1313,1363,65283,144055,163748,65236
20050,1369,1323,1308,1365,65283,144055,163748,65236
20050,1368,1322,1315,1366,65283,144055,163748,65236
20050,1368,1321,1312,1365,65283,144055,163748,65236
19958,1373,1327,1304,1365,65283,144055,163748,65236
20050,1368,1328,1304,1366,65283,144055,163748,65236
19958,1372,1322,1304,1363,65283,144055,163748,65236
20050,1371,1327,1312,1367,65283,144055,163748,65236
19958,1369,1333,1310,1369,65283,144055,163748,65236
20050,1369,1329,1310,1367,65283,144055,163748,65236
19683,1375,1330,1314,1364,65283,144055,163748,65236
20050,1377,1322,1304,1366,65283,144055,163748,65236
20050,1376,1325,1305,1365,65283,144055,163748,65236
20050,1366,1320,1307,1368,65283,144055,163748,65236
20050,1369,1325,1305,1366,65283,144055,163748,65236
20050,1371,1329,1305,1366,65283,144055,163748,65236
20050,1367,1323,1300,1363,65283,144055,163748,65236
19958,1372,1320,1290,1366,65283,144055,163748,65236
20050,1372,1319,1295,1365,65283,144055,163748,65236
19958,1374,1331,1314,1366,65283,144055,163748,65236
20050,1371,1340,1334,1364,65283,144055,163748,65236
19958,1368,1347,1352,1368,65283,144055,163748,65236
20050,1370,1348,1367,1366,65283,144055,163748,65236
19683,1376,1349,1373,1364,65283,144055,163748,65236
20050,1372,1350,1372,1365,65283,144055,163748,65236
20050,1368,1354,1372,1365,65283,144055,163748,65236
20050,1371,1349,1367,1366,65283,144055,163748,65236
20050,1372,1350,1361,1368,65283,144055,163748,65236
20050,1371,1348,1348,1367,65283,144055,163748,65236
20050,1371,1344,1339,1363,65283,144055,163748,65236
19958,1371,1332,1329,1363,65283,144055,163748,65236
20050,1368,1334,1331,1364,65283,144055,163748,65236
19958,1370,1342,1329,1368,65283,144055,163748,65236
20050,1373,1336,1329,1365,65283,144055,163748,65236
19683,1372,1342,1335,1363,65283,144055,163748,65236
20050,1374,1337,1342,1365,65283,144055,163748,65236
20050,1369,1341,1345,1366,65283,144055,163748,65236
20050,1372,1340,1353,1365,65283,144055,163748,65236
20050,1368,1347,1347,1368,65283,144055,163748,65236
20050,1367,1346,1349,1366,65283,144055,163748,65236
20050,1372,1343,1342,1366,65283,144055,163748,65236
19958,1368,1340,1331,1365,65283,144055,163748,65236
20050,1371,1338,1325,1366,65283,144055,163748,65236
19958,1369,1341,1330,1365,65283,144055,163748,65236
20050,1370,1340,1327,1366,65283,144055,163748,65236
19958,1370,1342,1320,1363,65283,144055,163748,65236
20050,1374,1332,1316,1364,65283,144055,163748,65236
20050,1374,1329,1313,1364,65283,144055,163748,65236
19683,1369,1330,1312,1366,65283,144055,163748,65236
20050,1372,1330,1314,1366,65283,144055,163748,65236
20050,1370,1333,1312,1364,65283,144055,163748,65236
20050,1369,1336,1316,1364,65283,144055,163748,65236
20050,1368,1330,1309,1366,65283,144055,163748,65236
20050,1369,1337,1310,1367,65283,144055,163748,65236
19958,1371,1327,1307,1366,65283,144055,163748,65236
20050,1370,1328,1310,1364,65283,144055,163748,65236
19958,1372,1339,1310,1366,65283,144055,163748,65236
20050,1375,1337,1304,1364,65283,144055,163748,65236
19958,1370,1326,1306,1364,65283,144055,163748,65236
20050,1369,1326,1300,1364,65283,144055,163748,65236
20050,1368,1329,1301,1367,65283,144055,163748,65236
19683,1371,1329,1295,1365,65283,144055,163748,65236
20050,1369,1326,1295,1365,65283,144055,163748,65236
20050,1370,1323,1288,1364,65283,144055,163748,65236
20050,1369,1335,1303,1367,65283,144055,163748,65236
20050,1370,1337,1322,1366,65283,144055,163748,65236
20050,1368,1344,1350,1367,65283,144055,163748,65236
19958,1371,1355,1367,1363,65283,144055,163748,65236
20050,1370,1364,1378,1365,65283,144055,163748,65236
19958,1373,1363,1376,1367,65283,144055,163748,65236
20050,1371,1355,1371,1365,65283,144055,163748,65236
20050,1375,1354,1362,1365,65283,144055,163748,65236
19683,1370,1344,1356,1365,65283,144055,163748,65236
20050,1369,1348,1353,1368,65283,144055,163748,65236
20050,1369,1346,1349,1367,65283,144055,163748,65236
20050,1374,1348,1340,1361,65283,144055,163748,65236
20050,1369,1343,1329,1365,65283,144055,163748,65236
20050,1373,1344,1331,1366,65283,144055,163748,65236
19958,1369,1339,1329,1368,65283,144055,163748,65236
20080,1371,1346,1345,1377,65236,143491,163513,65471
20050,1365,1330,1343,1380,65236,143491,163513,65471
19683,1364,1337,1349,1378,65236,143491,163513,65471
20050,1366,1340,1355,1382,65236,143491,163513,65471
20050,1366,1347,1352,1378,65236,143491,163513,65471
20050,1369,1342,1348,1373,65236,143491,163513,65471
20050,1370,1340,1336,1376,65236,143491,163513,65471
20050,1370,1334,1332,1375,65236,143491,163513,65471
20050,1365,1331,1328,1372,65236,143491,163513,65471
19683,1366,1324,1323,1376,65236,143491,163513,65471
20050,1364,1325,1322,1374,65236,143491,163513,65471
20050,1367,1322,1315,1373,65236,143491,163513,65471
20050,1367,1328,1314,1376,65236,143491,163513,65471
20050,1365,1323,1307,1373,65236,143491,163513,65471
20050,1362,1325,1303,1374,65236,143491,163513,65471
19958,1362,1315,1302,1375,65236,143491,163513,65471
20050,1364,1317,1307,1377,65236,143491,163513,65471
19958,1369,1326,1307,1374,65236,143491,163513,65471
20050,1365,1325,1296,1375,65236,143491,163513,65471
19958,1368,1319,1303,1376,65236,143491,163513,65471
20050,1368,1319,1300,1376,65236,143491,163513,65471
20050,1366,1318,1301,1377,65236,143491,163513,65471
20050,1362,1316,1299,1374,65236,143491,163513,65471
19683,1363,1320,1299,1375,65236,143491,163513,65471
20050,1364,1319,1290,1376,65236,143491,163513,65471
20050,1364,1324,1289,1376,65236,143491,163513,65471
20050,1362,1314,1288,1374,65236,143491,163513,65471
20050,1365,1314,1281,1374,65236,143491,163513,65471
19958,1365,1311,1283,1373,65236,143491,163513,65471
20050,1364,1316,1281,1373,65236,143491,163513,65471
19958,1368,1318,1277,1375,65236,143491,163513,65471
20050,1364,1317,1287,1373,65236,143491,163513,65471
19958,1367,1327,1317,1375,65236,143491,163513,65471
20050,1366,1337,1338,1376,65236,143491,163513,65471
20050,1366,1346,1355,1375,65236,143491,163513,65471
20050,1369,1348,1353,1377,65236,143491,163513,65471
19683,1366,1350,1354,1379,65236,143491,163513,65471
20050,1369,1348,1352,1378,65236,143491,163513,65471
20050,1366,1343,1342,1375,65236,143491,163513,65471
20050,1364,1335,1333,1375,65236,143491,163513,65471
20050,1365,1329,1329,1379,65236,143491,163513,65471
19958,1365,1333,1320,1375,65236,143491,163513,65471
20050,1365,1327,1308,1377,65236,143491,163513,65471
19958,1367,1322,1301,1375,65236,143491,163513,65471
20050,1363,1317,1298,1373,65236,143491,163513,65471
20050,1362,1322,1309,1377,65236,143491,163513,65471
20050,1366,1326,1313,1377,65236,143491,163513,65471
19683,1364,1333,1318,1374,65236,143491,163513,65471
20050,1364,1338,1326,1379,65236,143491,163513,65471
20050,1366,1341,1330,1377,65236,143491,163513,65471
20050,1364,1344,1327,1375,65236,143491,163513,65471
20050,1365,1341,1327,1377,65236,143491,163513,65471
19958,1364,1336,1321,1375,65236,143491,163513,65471
20050,1364,1333,1322,1375,65236,143491,163513,65471
19958,1364,1335,1309,1377,65236,143491,163513,65471
20050,1364,1330,1308,1373,65236,143491,163513,65471
19958,1362,1323,1306,1374,65236,143491,163513,65471
20050,1363,1324,1301,1375,65236,143491,163513,65471
20050,1367,1325,1303,1376,65236,143491,163513,65471
20050,1365,1328,1297,1376,65236,143491,163513,65471
19683,1365,1328,1296,1372,65236,143491,163513,65471
20050,1361,1325,1295,1374,65236,143491,163513,65471
20050,1365,1324,1295,1376,65236,143491,163513,65471
20050,1364,1321,1294,1375,65236,143491,163513,65471
20050,1367,1325,1295,1374,65236,143491,163513,65471
19958,1363,1328,1299,1372,65236,143491,163513,65471
20050,1363,1323,1292,1376,65236,143491,163513,65471
19958,1365,1325,1294,1376,65236,143491,163513,65471
20050,1365,1322,1290,1373,65236,143491,163513,65471
19958,1363,1327,1296,1375,65236,143491,163513,65471
20050,1366,1326,1297,1377,65236,143491,163513,65471
20050,1365,1326,1287,1376,65236,143491,163513,65471
20050,1366,1330,1287,1376,65236,143491,163513,65471
20050,1364,1320,1280,1375,65236,143491,163513,65471
19683,1366,1322,1278,1375,65236,143491,163513,65471
20050,1366,1319,1286,1376,65236,143491,163513,65471
20050,1363,1326,1304,1377,65236,143491,163513,65471
20050,1365,1336,1328,1377,65236,143491,163513,65471
19958,1366,1350,1345,1375,65236,143491,163513,65471
20050,1362,1352,1361,1378,65236,143491,163513,65471
19958,1366,1352,1372,1377,65236,143491,163513,65471
20050,1369,1358,1376,1377,65236,143491,163513,65471
20050,1365,1355,1367,1375,65236,143491,163513,65471
20050,1363,1356,1364,1375,65236,143491,163513,65471
20050,1363,1356,1354,1376,65236,143491,163513,65471
19683,1368,1353,1345,1376,65236,143491,163513,65471
20050,1363,1341,1334,1377,65236,143491,163513,65471
20050,1366,1340,1326,1374,65236,143491,163513,65471
20050,1365,1344,1329,1378,65236,143491,163513,65471
19958,1367,1340,1326,1376,65236,143491,163513,65471
20050,1364,1339,1326,1374,65236,143491,163513,65471
19958,1365,1344,1336,1377,65236,143491,163513,65471
20050,1364,1340,1347,1379,65236,143491,163513,65471
19958,1368,1352,1358,1377,65236,143491,163513,65471
20050,1365,1355,1359,1378,65236,143491,163513,65471
20050,1363,1350,1348,1376,65236,143491,163513,65471
20050,1368,1355,1349,1379,65236,143491,163513,65471
20050,1365,1348,1349,1376,65236,143491,163513,65471
19683,1365,1346,1344,1375,65236,143491,163513,65471
20050,1367,1340,1337,1376,65236,143491,163513,65471
20050,1364,1345,1339,1377,65236,143491,163513,65471
20050,1364,1344,1331,1376,65236,143491,163513,65471
19958,1365,1350,1327,1374,65236,143491,163513,65471
20050,1363,1342,1323,1375,65236,143491,163513,65471
19958,1364,1335,1328,1376,65236,143491,163513,65471
20050,1366,1342,1326,1374,65236,143491,163513,65471
19958,1369,1344,1321,1373,65236,143491,163513,65471
20050,1364,1344,1318,1375,65236,143491,163513,65471
20050,1364,1340,1316,1377,65236,143491,163513,65471
20050,1364,1339,1320,1376,65236,143491,163513,65471
20050,1365,1335,1317,1376,65236,143491,163513,65471
19683,1365,1337,1319,1374,65236,143491,163513,65471
20050,1366,1338,1321,1377,65236,143491,163513,65471
20050,1368,1343,1321,1376,65236,143491,163513,65471
20050,1366,1344,1315,1376,65236,143491,163513,65471
19958,1367,1335,1311,1376,65236,143491,163513,65471
20050,1365,1331,1307,1377,65236,143491,163513,65471
19958,1367,1333,1313,1375,65236,143491,163513,65471
20050,1365,1341,1311,1374,65236,143491,163513,65471
20050,1364,1336,1301,1374,65236,143491,163513,65471
20050,1366,1340,1301,1373,65236,143491,163513,65471
20050,1366,1337,1312,1373,65236,143491,163513,65471
20050,1365,1350,1335,1379,65236,143491,163513,65471
19683,1368,1356,1360,1376,65236,143491,163513,65471
20050,1368,1363,1380,1376,65236,143491,163513,65471
20050,1364,1366,1388,1375,65236,143491,163513,65471
19958,1368,1375,1389,1376,65236,143491,163513,65471
20050,1365,1375,1391,1376,65236,143491,163513,65471
19958,1365,1366,1385,1375,65236,143491,163513,65471
20050,1365,1364,1382,1376,65236,143491,163513,65471
19958,1366,1363,1371,1376,65236,143491,163513,65471
20050,1366,1363,1360,1375,65236,143491,163513,65471
20050,1366,1356,1355,1377,65236,143491,163513,65471
20050,1363,1354,1344,1376,65236,143491,163513,65471
20050,1364,1346,1347,1379,65236,143491,163513,65471
20050,1365,1352,1350,1377,65236,143491,163513,65471
19683,1364,1351,1356,1374,65236,143491,163513,65471
20050,1367,1359,1364,1376,65236,143491,163513,65471
20050,1365,1361,1365,1374,65236,143491,163513,65471
19958,1370,1360,1369,1378,65236,143491,163513,65471
20050,1368,1359,1370,1374,65236,143491,163513,65471
19958,1363,1360,1371,1372,65236,143491,163513,65471
20050,1368,1365,1368,1373,65236,143491,163513,65471
19958,1364,1357,1364,1376,65236,143491,163513,65471
20050,1367,1358,1357,1374,65236,143491,163513,65471
20050,1365,1351,1354,1374,65236,143491,163513,65471
20050,1365,1348,1350,1377,65236,143491,163513,65471
20050,1362,1350,1350,1377,65236,143491,163513,65471
20050,1368,1353,1344,1379,65236,143491,163513,65471
19683,1364,1349,1337,1378,65236,143491,163513,65471
20050,1364,1356,1335,1373,65236,143491,163513,65471
20080,1367,1352,1334,1362,65471,142457,162949,65189
20050,1380,1324,1317,1365,65471,142457,162949,65189
20050,1377,1319,1314,1366,65471,142457,162949,65189
20050,1373,1319,1316,1365,65471,142457,162949,65189
20050,1375,1314,1316,1366,65471,142457,162949,65189
19683,1376,1320,1324,1366,65471,142457,162949,65189
20050,1372,1321,1319,1366,65471,142457,162949,65189
20050,1372,1328,1319,1364,65471,142457,162949,65189
19958,1374,1320,1313,1364,65471,142457,162949,65189
20050,1374,1319,1311,1365,65471,142457,162949,65189
20050,1377,1314,1309,1367,65471,142457,162949,65189
20050,1375,1315,1308,1364,65471,142457,162949,65189
20050,1374,1314,1308,1366,65471,142457,162949,65189
20050,1373,1320,1306,1365,65471,142457,162949,65189
19683,1376,1316,1302,1364,65471,142457,162949,65189
20050,1376,1323,1298,1365,65471,142457,162949,65189
20050,1374,1316,1307,1366,65471,142457,162949,65189
19958,1377,1316,1323,1364,65471,142457,162949,65189
20050,1373,1334,1354,1365,65471,142457,162949,65189
19958,1377,1342,1368,1364,65471,142457,162949,65189
20050,1375,1347,1376,1364,65471,142457,162949,65189
20050,1374,1345,1374,1365,65471,142457,162949,65189
20050,1376,1347,1376,1367,65471,142457,162949,65189
20050,1380,1338,1373,1367,65471,142457,162949,65189
20050,1374,1339,1369,1364,65471,142457,162949,65189
20050,1374,1331,1365,1366,65471,142457,162949,65189
19683,1376,1339,1356,1368,65471,142457,162949,65189
20050,1376,1335,1344,1369,65471,142457,162949,65189
19958,1373,1327,1334,1362,65471,142457,162949,65189
20050,1376,1324,1335,1363,65471,142457,162949,65189
19958,1374,1325,1334,1368,65471,142457,162949,65189
20050,1376,1331,1338,1366,65471,142457,162949,65189
19958,1375,1331,1342,1366,65471,142457,162949,65189
20050,1380,1330,1349,1369,65471,142457,162949,65189
20050,1375,1328,1350,1363,65471,142457,162949,65189
20050,1375,1330,1360,1367,65471,142457,162949,65189
20050,1377,1334,1361,1368,65471,142457,162949,65189
20050,1376,1339,1359,1365,65471,142457,162949,65189
20050,1375,1334,1346,1368,65471,142457,162949,65189
19683,1374,1343,1345,1367,65471,142457,162949,65189
20050,1380,1337,1336,1371,65471,142457,162949,65189
19958,1373,1321,1331,1364,65471,142457,162949,65189
20050,1374,1325,1333,1365,65471,142457,162949,65189
19958,1374,1327,1323,1368,65471,142457,162949,65189
20050,1376,1325,1320,1364,65471,142457,162949,65189
19958,1374,1317,1313,1366,65471,142457,162949,65189
20050,1375,1314,1312,1365,65471,142457,162949,65189
20050,1376,1314,1315,1365,65471,142457,162949,65189
20050,1379,1318,1312,1365,65471,142457,162949,65189
20050,1374,1322,1313,1367,65471,142457,162949,65189
20050,1375,1317,1304,1366,65471,142457,162949,65189
20050,1375,1324,1301,1364,65471,142457,162949,65189
19683,1373,1319,1306,1366,65471,142457,162949,65189
20050,1377,1319,1305,1365,65471,142457,162949,65189
19958,1371,1311,1307,1366,65471,142457,162949,65189
20050,1375,1317,1306,1365,65471,142457,162949,65189
19958,1376,1314,1297,1364,65471,142457,162949,65189
20050,1376,1311,1299,1362,65471,142457,162949,65189
20050,1375,1304,1289,1362,65471,142457,162949,65189
20050,1376,1303,1291,1363,65471,142457,162949,65189
20050,1375,1302,1287,1366,65471,142457,162949,65189
20050,1377,1307,1286,1366,65471,142457,162949,65189
20050,1376,1302,1275,1366,65471,142457,162949,65189
19683,1373,1307,1275,1367,65471,142457,162949,65189
20050,1376,1311,1283,1370,65471,142457,162949,65189
19958,1375,1310,1305,1367,65471,142457,162949,65189
20050,1375,1320,1332,1365,65471,142457,162949,65189
19958,1376,1327,1342,1366,65471,142457,162949,65189
20050,1376,1334,1350,1366,65471,142457,162949,65189
19958,1379,1331,1355,1365,65471,142457,162949,65189
20050,1379,1326,1348,1368,65471,142457,162949,65189
20050,1376,1328,1347,1364,65471,142457,162949,65189
20050,1377,1326,1337,1368,65471,142457,162949,65189
20050,1374,1324,1330,1365,65471,142457,162949,65189
20050,1375,1327,1315,1366,65471,142457,162949,65189
20050,1374,1322,1308,1366,65471,142457,162949,65189
19683,1372,1314,1300,1364,65471,142457,162949,65189
20050,1377,1313,1299,1364,65471,142457,162949,65189
19958,1375,1311,1303,1368,65471,142457,162949,65189
20050,1374,1318,1306,1366,65471,142457,162949,65189
19958,1375,1318,1313,1364,65471,142457,162949,65189
20050,1375,1323,1322,1369,65471,142457,162949,65189
19958,1372,1324,1330,1365,65471,142457,162949,65189
20050,1374,1323,1332,1368,65471,142457,162949,65189
20050,1374,1330,1332,1368,65471,142457,162949,65189
20050,1377,1324,1324,1368,65471,142457,162949,65189
20050,1377,1329,1320,1368,65471,142457,162949,65189
20050,1377,1326,1315,1363,65471,142457,162949,65189
20050,1373,1323,1308,1365,65471,142457,162949,65189
20050,1376,1314,1304,1366,65471,142457,162949,65189
19683,1375,1318,1310,1367,65471,142457,162949,65189
20324,1377,1316,1299,1364,65471,142457,162949,65189
19683,1376,1322,1298,1368,65471,142457,162949,65189
19958,1375,1314,1297,1365,65471,142457,162949,65189
20050,1377,1307,1293,1366,65471,142457,162949,65189
20050,1375,1313,1302,1363,65471,142457,162949,65189
20050,1373,1313,1298,1365,65471,142457,162949,65189
20050,1375,1320,1302,1367,65471,142457,162949,65189
20050,1375,1319,1299,1365,65471,142457,162949,65189
20050,1375,1326,1302,1369,65471,142457,162949,65189
20050,1374,1317,1304,1367,65471,142457,162949,65189
19683,1373,1319,1302,1364,65471,142457,162949,65189
20324,1376,1312,1301,1368,65471,142457,162949,65189
19683,1374,1315,1301,1369,65471,142457,162949,65189
20324,1376,1318,1289,1367,65471,142457,162949,65189
19683,1375,1314,1292,1365,65471,142457,162949,65189
20324,1373,1310,1293,1367,65471,142457,162949,65189
19683,1373,1309,1294,1368,65471,142457,162949,65189
20050,1377,1314,1290,1363,65471,142457,162949,65189
20050,1374,1315,1298,1364,65471,142457,162949,65189
20050,1373,1330,1321,1366,65471,142457,162949,65189
20050,1376,1333,1341,1367,65471,142457,162949,65189
20050,1375,1340,1357,1365,65471,142457,162949,65189
20050,1374,1336,1370,1366,65471,142457,162949,65189
19683,1376,1339,1375,1366,65471,142457,162949,65189
20324,1378,1346,1371,1369,65471,142457,162949,65189
19683,1377,1351,1365,1368,65471,142457,162949,65189
20324,1374,1334,1358,1366,65471,142457,162949,65189
19683,1376,1332,1351,1367,65471,142457,162949,65189
20324,1376,1333,1346,1368,65471,142457,162949,65189
19683,1376,1329,1334,1366,65471,142457,162949,65189
20050,1374,1328,1329,1366,65471,142457,162949,65189
20050,1369,1326,1325,1365,65471,142457,162949,65189
20050,1377,1327,1324,1366,65471,142457,162949,65189
20050,1376,1327,1333,1364,65471,142457,162949,65189
20050,1376,1325,1348,1367,65471,142457,162949,65189
20050,1374,1327,1353,1370,65471,142457,162949,65189
19683,1375,1339,1358,1370,65471,142457,162949,65189
20324,1375,1343,1354,1365,65471,142457,162949,65189
19683,1375,1338,1352,1367,65471,142457,162949,65189
20324,1376,1331,1355,1365,65471,142457,162949,65189
19683,1375,1325,1349,1367,65471,142457,162949,65189
20050,1376,1332,1345,1366,65471,142457,162949,65189
20050,1377,1330,1334,1366,65471,142457,162949,65189
20050,1376,1335,1329,1367,65471,142457,162949,65189
20050,1375,1324,1326,1369,65471,142457,162949,65189
20050,1375,1326,1323,1365,65471,142457,162949,65189
20050,1375,1319,1324,1363,65471,142457,162949,65189
20050,1378,1319,1320,1365,65471,142457,162949,65189
19683,1375,1316,1315,1364,65471,142457,162949,65189
20050,1374,1322,1321,1364,65471,142457,162949,65189
20050,1377,1320,1318,1366,65471,142457,162949,65189
20050,1374,1321,1320,1365,65471,142457,162949,65189
20050,1375,1316,1310,1365,65471,142457,162949,65189
20050,1373,1322,1311,1367,65471,142457,162949,65189
20050,1376,1318,1311,1364,65471,142457,162949,65189
19683,1374,1313,1309,1365,65471,142457,162949,65189
20050,1376,1308,1307,1364,65471,142457,162949,65189
20050,1376,1313,1310,1366,65471,142457,162949,65189
20050,1375,1315,1311,1369,65471,142457,162949,65189
20080,1378,1316,1309,1373,65189,142175,162526,65377
20050,1366,1311,1292,1372,65189,142175,162526,65377
20050,1368,1308,1287,1371,65189,142175,162526,65377
19683,1366,1310,1283,1371,65189,142175,162526,65377
20050,1365,1307,1284,1369,65189,142175,162526,65377
20050,1366,1310,1299,1371,65189,142175,162526,65377
20050,1363,1316,1324,1369,65189,142175,162526,65377
20050,1367,1324,1351,1372,65189,142175,162526,65377
20050,1366,1334,1370,1374,65189,142175,162526,65377
20050,1367,1338,1373,1371,65189,142175,162526,65377
20050,1364,1341,1371,1371,65189,142175,162526,65377
19683,1366,1343,1373,1372,65189,142175,162526,65377
20050,1368,1343,1365,1372,65189,142175,162526,65377
20050,1367,1341,1357,1371,65189,142175,162526,65377
20050,1366,1331,1347,1371,65189,142175,162526,65377
20050,1365,1327,1343,1369,65189,142175,162526,65377
20050,1367,1324,1337,1377,65189,142175,162526,65377
20050,1367,1325,1328,1373,65189,142175,162526,65377
19683,1367,1323,1331,1373,65189,142175,162526,65377
20050,1366,1324,1330,1370,65189,142175,162526,65377
20050,1370,1324,1331,1373,65189,142175,162526,65377
20050,1367,1332,1339,1374,65189,142175,162526,65377
20050,1366,1327,1343,1371,65189,142175,162526,65377
20050,1366,1324,1346,1372,65189,142175,162526,65377
20050,1368,1324,1347,1373,65189,142175,162526,65377
20050,1370,1329,1355,1370,65189,142175,162526,65377
19683,1366,1326,1344,1372,65189,142175,162526,65377
20050,1365,1331,1343,1372,65189,142175,162526,65377
20050,1368,1324,1332,1371,65189,142175,162526,65377
20050,1364,1330,1328,1372,65189,142175,162526,65377
20050,1367,1324,1326,1374,65189,142175,162526,65377
20050,1365,1325,1321,1373,65189,142175,162526,65377
20050,1364,1317,1320,1370,65189,142175,162526,65377
19683,1363,1315,1322,1372,65189,142175,162526,65377
20050,1367,1315,1317,1374,65189,142175,162526,65377
20050,1363,1320,1318,1369,65189,142175,162526,65377
20050,1363,1321,1313,1366,65189,142175,162526,65377
20050,1364,1319,1313,1371,65189,142175,162526,65377
20050,1370,1320,1310,1375,65189,142175,162526,65377
20050,1365,1316,1306,1374,65189,142175,162526,65377
20050,1364,1312,1307,1369,65189,142175,162526,65377
19683,1363,1313,1309,1369,65189,142175,162526,65377
20050,1369,1308,1308,1370,65189,142175,162526,65377
20050,1364,1314,1309,1370,65189,142175,162526,65377
20050,1366,1311,1309,1369,65189,142175,162526,65377
20050,1363,1315,1307,1370,65189,142175,162526,65377
20050,1368,1319,1302,1371,65189,142175,162526,65377
20050,1365,1320,1300,1370,65189,142175,162526,65377
19683,1365,1311,1297,1369,65189,142175,162526,65377
20050,1364,1315,1292,1370,65189,142175,162526,65377
20050,1364,1311,1292,1370,65189,142175,162526,65377
20050,1365,1311,1298,1372,65189,142175,162526,65377
20050,1362,1316,1314,1372,65189,142175,162526,65377
20050,1365,1326,1341,1370,65189,142175,162526,65377
20050,1364,1340,1363,1372,65189,142175,162526,65377
20050,1371,1338,1369,1373,65189,142175,162526,65377
19683,1371,1343,1374,1371,65189,142175,162526,65377
20050,1368,1343,1375,1372,65189,142175,162526,65377
20050,1370,1338,1372,1371,65189,142175,162526,65377
20050,1365,1335,1366,1372,65189,142175,162526,65377
20050,1371,1329,1365,1373,65189,142175,162526,65377
20050,1365,1332,1353,1370,65189,142175,162526,65377
20050,1367,1330,1349,1373,65189,142175,162526,65377
19683,1366,1331,1338,1370,65189,142175,162526,65377
20050,1367,1326,1331,1371,65189,142175,162526,65377
20050,1366,1326,1331,1368,65189,142175,162526,65377
20050,1364,1331,1332,1372,65189,142175,162526,65377
20050,1366,1326,1338,1368,65189,142175,162526,65377
20050,1366,1329,1351,1369,65189,142175,162526,65377
20050,1364,1327,1356,1373,65189,142175,162526,65377
20050,1366,1334,1356,1376,65189,142175,162526,65377
19683,1367,1338,1355,1369,65189,142175,162526,65377
20050,1368,1340,1354,1372,65189,142175,162526,65377
20050,1372,1331,1345,1374,65189,142175,162526,65377
20050,1369,1336,1336,1371,65189,142175,162526,65377
20050,1365,1328,1334,1371,65189,142175,162526,65377
20050,1366,1325,1329,1369,65189,142175,162526,65377
20050,1365,1314,1319,1369,65189,142175,162526,65377
19683,1364,1315,1325,1372,65189,142175,162526,65377
20050,1365,1319,1319,1373,65189,142175,162526,65377
20050,1369,1323,1318,1369,65189,142175,162526,65377
20050,1366,1319,1307,1371,65189,142175,162526,65377
20050,1366,1319,1303,1372,65189,142175,162526,65377
20050,1365,1316,1305,1372,65189,142175,162526,65377
20050,1364,1319,1303,1372,65189,142175,162526,65377
20050,1365,1313,1304,1370,65189,142175,162526,65377
19683,1364,1309,1306,1368,65189,142175,162526,65377
20050,1365,1309,1303,1375,65189,142175,162526,65377
20050,1366,1314,1298,1375,65189,142175,162526,65377
20050,1366,1316,1295,1372,65189,142175,162526,65377
20050,1370,1314,1292,1369,65189,142175,162526,65377
20050,1367,1308,1283,1369,65189,142175,162526,65377
20050,1371,1309,1281,1374,65189,142175,162526,65377
20050,1367,1299,1282,1370,65189,142175,162526,65377
19683,1366,1301,1275,1367,65189,142175,162526,65377
20050,1366,1295,1268,1371,65189,142175,162526,65377
20050,1365,1300,1270,1371,65189,142175,162526,65377
20050,1361,1299,1271,1371,65189,142175,162526,65377
20050,1366,1306,1288,1373,65189,142175,162526,65377
20050,1365,1316,1302,1369,65189,142175,162526,65377
20050,1366,1325,1325,1368,65189,142175,162526,65377
19683,1365,1329,1339,1375,65189,142175,162526,65377
20050,1368,1332,1340,1373,65189,142175,162526,65377
20050,1367,1328,1337,1369,65189,142175,162526,65377
20050,1364,1323,1339,1373,65189,142175,162526,65377
20050,1367,1319,1331,1375,65189,142175,162526,65377
20050,1365,1319,1317,1375,65189,142175,162526,65377
20050,1365,1322,1308,1371,65189,142175,162526,65377
20050,1369,1320,1296,1374,65189,142175,162526,65377
19683,1370,1310,1287,1373,65189,142175,162526,65377
20050,1369,1305,1283,1371,65189,142175,162526,65377
20050,1363,1303,1277,1370,65189,142175,162526,65377
20050,1365,1299,1284,1371,65189,142175,162526,65377
20050,1367,1303,1295,1372,65189,142175,162526,65377
20050,1368,1309,1306,1372,65189,142175,162526,65377
20050,1367,1316,1310,1372,65189,142175,162526,65377
19683,1366,1315,1310,1370,65189,142175,162526,65377
20050,1366,1322,1311,1374,65189,142175,162526,65377
20050,1366,1316,1312,1373,65189,142175,162526,65377
20050,1365,1320,1305,1371,65189,142175,162526,65377
20050,1363,1311,1298,1368,65189,142175,162526,65377
20050,1365,1309,1300,1372,65189,142175,162526,65377
20050,1363,1304,1289,1373,65189,142175,162526,65377
20050,1365,1307,1291,1375,65189,142175,162526,65377
19683,1365,1306,1290,1373,65189,142175,162526,65377
20050,1363,1309,1288,1370,65189,142175,162526,65377
20050,1370,1306,1279,1371,65189,142175,162526,65377
20050,1368,1311,1274,1369,65189,142175,162526,65377
20050,1371,1304,1275,1370,65189,142175,162526,65377
20050,1366,1301,1273,1367,65189,142175,162526,65377
20050,1364,1298,1277,1374,65189,142175,162526,65377
19683,1366,1305,1285,1374,65189,142175,162526,65377
20050,1366,1303,1284,1371,65189,142175,162526,65377
20050,1363,1309,1284,1372,65189,142175,162526,65377
20050,1369,1308,1278,1371,65189,142175,162526,65377
20050,1367,1308,1277,1371,65189,142175,162526,65377
20050,1363,1306,1277,1371,65189,142175,162526,65377
20050,1366,1308,1273,1370,65189,142175,162526,65377
20050,1364,1300,1276,1371,65189,142175,162526,65377
19683,1365,1299,1277,1369,65189,142175,162526,65377
20050,1367,1303,1279,1373,65189,142175,162526,65377
20050,1363,1311,1286,1374,65189,142175,162526,65377
20050,1363,1316,1310,1374,65189,142175,162526,65377
20050,1364,1329,1331,1369,65189,142175,162526,65377
20050,1372,1335,1340,1373,65189,142175,162526,65377
20050,1372,1335,1351,1373,65189,142175,162526,65377
19683,1370,1329,1355,1371,65189,142175,162526,65377
20050,1363,1332,1355,1374,65189,142175,162526,65377
20050,1366,1326,1349,1371,65189,142175,162526,65377
20050,1364,1329,1342,1369,65189,142175,162526,65377
20080,1367,1325,1336,1373,65424,142175,162479,65377
20050,1371,1325,1331,1376,65424,142175,162479,65377
20050,1371,1329,1322,1375,65424,142175,162479,65377
19683,1374,1326,1316,1371,65424,142175,162479,65377
20050,1374,1318,1312,1370,65424,142175,162479,65377
20050,1375,1316,1313,1371,65424,142175,162479,65377
20050,1376,1320,1323,1372,65424,142175,162479,65377
20050,1371,1318,1331,1373,65424,142175,162479,65377
20050,1370,1324,1341,1371,65424,142175,162479,65377
20050,1369,1325,1343,1373,65424,142175,162479,65377
20050,1372,1334,1346,1371,65424,142175,162479,65377
19683,1373,1331,1338,1373,65424,142175,162479,65377
20050,1370,1330,1339,1374,65424,142175,162479,65377
20050,1370,1326,1335,1372,65424,142175,162479,65377
20050,1370,1326,1326,1372,65424,142175,162479,65377
20050,1369,1322,1324,1371,65424,142175,162479,65377
20050,1373,1319,1327,1373,65424,142175,162479,65377
20050,1369,1316,1321,1374,65424,142175,162479,65377
19683,1368,1317,1319,1375,65424,142175,162479,65377
20050,1371,1319,1312,1377,65424,142175,162479,65377
20050,1370,1322,1314,1375,65424,142175,162479,65377
20050,1371,1316,1310,1370,65424,142175,162479,65377
20050,1375,1321,1306,1369,65424,142175,162479,65377
20050,1376,1317,1307,1369,65424,142175,162479,65377
20050,1375,1313,1305,1369,65424,142175,162479,65377
20050,1370,1307,1307,1370,65424,142175,162479,65377
19683,1371,1314,1312,1371,65424,142175,162479,65377
20050,1368,1315,1313,1368,65424,142175,162479,65377
20050,1369,1317,1310,1370,65424,142175,162479,65377
20050,1371,1312,1301,1372,65424,142175,162479,65377
20050,1367,1317,1302,1369,65424,142175,162479,65377
20050,1370,1313,1301,1372,65424,142175,162479,65377
20050,1373,1312,1301,1374,65424,142175,162479,65377
19683,1368,1311,1295,1370,65424,142175,162479,65377
20050,1370,1309,1300,1373,65424,142175,162479,65377
20050,1370,1316,1318,1372,65424,142175,162479,65377
20050,1371,1328,1338,1375,65424,142175,162479,65377
20050,1374,1336,1357,1375,65424,142175,162479,65377
20050,1372,1348,1374,1378,65424,142175,162479,65377
20050,1373,1347,1379,1373,65424,142175,162479,65377
20050,1375,1346,1378,1375,65424,142175,162479,65377
19683,1381,1341,1379,1373,65424,142175,162479,65377
20050,1376,1334,1367,1369,65424,142175,162479,65377
20050,1369,1331,1362,1370,65424,142175,162479,65377
20050,1373,1332,1359,1375,65424,142175,162479,65377
20050,1375,1329,1355,1371,65424,142175,162479,65377
20050,1370,1329,1345,1372,65424,142175,162479,65377
20050,1371,1328,1339,1373,65424,142175,162479,65377
19683,1372,1327,1338,1370,65424,142175,162479,65377
20050,1373,1325,1342,1373,65424,142175,162479,65377
20050,1370,1322,1346,1370,65424,142175,162479,65377
20050,1368,1330,1359,1371,65424,142175,162479,65377
20050,1371,1332,1361,1372,65424,142175,162479,65377
20050,1375,1329,1364,1373,65424,142175,162479,65377
20050,1370,1337,1367,1375,65424,142175,162479,65377
20050,1369,1342,1359,1372,65424,142175,162479,65377
19683,1371,1335,1358,1376,65424,142175,162479,65377
20050,1372,1334,1357,1371,65424,142175,162479,65377
20050,1375,1327,1346,1371,65424,142175,162479,65377
20050,1376,1323,1337,1372,65424,142175,162479,65377
20050,1370,1321,1334,1371,65424,142175,162479,65377
20050,1370,1321,1342,1368,65424,142175,162479,65377
20050,1374,1321,1336,1370,65424,142175,162479,65377
20050,1369,1324,1333,1370,65424,142175,162479,65377
19683,1367,1322,1327,1370,65424,142175,162479,65377
20050,1369,1324,1331,1371,65424,142175,162479,65377
20050,1370,1323,1330,1372,65424,142175,162479,65377
20050,1371,1322,1325,1369,65424,142175,162479,65377
20050,1369,1314,1324,1367,65424,142175,162479,65377
20050,1367,1316,1329,1370,65424,142175,162479,65377
20050,1369,1318,1328,1373,65424,142175,162479,65377
19683,1372,1321,1330,1368,65424,142175,162479,65377
20050,1371,1321,1320,1374,65424,142175,162479,65377
20050,1374,1322,1321,1373,65424,142175,162479,65377
20050,1372,1318,1322,1377,65424,142175,162479,65377
20050,1369,1321,1319,1369,65424,142175,162479,65377
20050,1375,1309,1311,1371,65424,142175,162479,65377
20050,1375,1312,1305,1368,65424,142175,162479,65377
20050,1373,1306,1306,1371,65424,142175,162479,65377
19683,1369,1309,1317,1370,65424,142175,162479,65377
20050,1370,1318,1331,1369,65424,142175,162479,65377
20050,1368,1329,1352,1370,65424,142175,162479,65377
20050,1372,1331,1364,1369,65424,142175,162479,65377
20050,1369,1342,1377,1372,65424,142175,162479,65377
20050,1372,1339,1380,1371,65424,142175,162479,65377
20050,1369,1337,1382,1372,65424,142175,162479,65377
19683,1372,1331,1378,1373,65424,142175,162479,65377
20050,1372,1335,1374,1372,65424,142175,162479,65377
20050,1373,1334,1369,1369,65424,142175,162479,65377
20050,1370,1332,1359,1374,65424,142175,162479,65377
20050,1370,1329,1347,1372,65424,142175,162479,65377
20050,1373,1332,1343,1373,65424,142175,162479,65377
20050,1370,1326,1340,1371,65424,142175,162479,65377
20050,1370,1324,1339,1372,65424,142175,162479,65377
19683,1376,1322,1337,1371,65424,142175,162479,65377
20050,1373,1323,1347,1373,65424,142175,162479,65377
20050,1372,1321,1359,1372,65424,142175,162479,65377
20050,1372,1329,1359,1370,65424,142175,162479,65377
20050,1371,1326,1360,1370,65424,142175,162479,65377
20050,1370,1332,1361,1372,65424,142175,162479,65377
20050,1368,1331,1351,1374,65424,142175,162479,65377
19683,1371,1328,1344,1370,65424,142175,162479,65377
20050,1369,1322,1339,1371,65424,142175,162479,65377
20050,1371,1320,1334,1371,65424,142175,162479,65377
20050,1370,1317,1336,1372,65424,142175,162479,65377
20050,1370,1319,1327,1368,65424,142175,162479,65377
20050,1368,1320,1324,1368,65424,142175,162479,65377
20050,1367,1320,1319,1373,65424,142175,162479,65377
20050,1371,1323,1315,1375,65424,142175,162479,65377
19683,1372,1320,1313,1373,65424,142175,162479,65377
20050,1371,1316,1314,1369,65424,142175,162479,65377
20050,1368,1312,1312,1370,65424,142175,162479,65377
20050,1377,1312,1308,1369,65424,142175,162479,65377
20050,1373,1312,1305,1370,65424,142175,162479,65377
20050,1371,1307,1307,1369,65424,142175,162479,65377
20050,1371,1309,1306,1369,65424,142175,162479,65377
19683,1372,1312,1305,1370,65424,142175,162479,65377
20050,1368,1312,1300,1372,65424,142175,162479,65377
20050,1367,1316,1295,1372,65424,142175,162479,65377
20050,1372,1308,1290,1369,65424,142175,162479,65377
20050,1370,1302,1287,1368,65424,142175,162479,65377
20050,1370,1300,1284,1372,65424,142175,162479,65377
20050,1370,1299,1283,1370,65424,142175,162479,65377
20050,1370,1301,1282,1368,65424,142175,162479,65377
19683,1369,1301,1275,1370,65424,142175,162479,65377
20050,1370,1301,1274,1370,65424,142175,162479,65377
20050,1369,1309,1280,1374,65424,142175,162479,65377
20050,1369,1309,1298,1373,65424,142175,162479,65377
20050,1370,1318,1323,1372,65424,142175,162479,65377
20050,1371,1320,1341,1374,65424,142175,162479,65377
20050,1376,1324,1343,1370,65424,142175,162479,65377
19683,1375,1322,1344,1370,65424,142175,162479,65377
20050,1370,1323,1346,1372,65424,142175,162479,65377
20050,1371,1322,1340,1371,65424,142175,162479,65377
20050,1371,1327,1334,1373,65424,142175,162479,65377
20050,1370,1316,1319,1371,65424,142175,162479,65377
20050,1371,1317,1310,1370,65424,142175,162479,65377
20050,1369,1312,1304,1374,65424,142175,162479,65377
20050,1371,1310,1299,1373,65424,142175,162479,65377
19683,1366,1302,1298,1371,65424,142175,162479,65377
20050,1370,1307,1305,1369,65424,142175,162479,65377
20050,1371,1309,1317,1370,65424,142175,162479,65377
20050,1373,1321,1324,1372,65424,142175,162479,65377
20050,1372,1322,1328,1377,65424,142175,162479,65377
20050,1372,1327,1329,1374,65424,142175,162479,65377
20050,1367,1327,1331,1374,65424,142175,162479,65377
19683,1372,1325,1332,1371,65424,142175,162479,65377
20050,1375,1324,1327,1370,65424,142175,162479,65377
20050,1375,1319,1321,1368,65424,142175,162479,65377
20050,1371,1317,1320,1369,65424,142175,162479,65377
20080,1373,1317,1316,1371,65377,142034,161821,65330
20050,1371,1314,1300,1372,65377,142034,161821,65330
20050,1368,1311,1289,1370,65377,142034,161821,65330
19683,1369,1314,1285,1368,65377,142034,161821,65330
20050,1368,1313,1283,1376,65377,142034,161821,65330
20050,1368,1309,1283,1372,65377,142034,161821,65330
20050,1372,1306,1280,1368,65377,142034,161821,65330
20050,1369,1307,1286,1372,65377,142034,161821,65330
20050,1375,1306,1285,1374,65377,142034,161821,65330
20050,1370,1308,1285,1369,65377,142034,161821,65330
20050,1370,1305,1283,1369,65377,142034,161821,65330
19683,1373,1310,1284,1370,65377,142034,161821,65330
20050,1369,1307,1278,1371,65377,142034,161821,65330
20050,1367,1311,1278,1370,65377,142034,161821,65330
20050,1371,1306,1276,1370,65377,142034,161821,65330
20050,1369,1305,1275,1368,65377,142034,161821,65330
20050,1368,1296,1272,1370,65377,142034,161821,65330
20050,1369,1303,1274,1371,65377,142034,161821,65330
19683,1369,1301,1273,1372,65377,142034,161821,65330
20050,1371,1307,1270,1367,65377,142034,161821,65330
20050,1369,1307,1268,1371,65377,142034,161821,65330
20050,1372,1312,1276,1372,65377,142034,161821,65330
20050,1371,1316,1294,1378,65377,142034,161821,65330
20050,1372,1325,1313,1371,65377,142034,161821,65330
20050,1372,1323,1329,1372,65377,142034,161821,65330
20050,1369,1328,1341,1372,65377,142034,161821,65330
19683,1373,1326,1344,1374,65377,142034,161821,65330
20050,1372,1332,1343,1371,65377,142034,161821,65330
20050,1372,1325,1339,1370,65377,142034,161821,65330
20050,1369,1329,1331,1370,65377,142034,161821,65330
20050,1372,1323,1319,1370,65377,142034,161821,65330
20050,1373,1321,1311,1368,65377,142034,161821,65330
20050,1369,1316,1302,1367,65377,142034,161821,65330
20050,1372,1313,1300,1371,65377,142034,161821,65330
19683,1371,1304,1295,1369,65377,142034,161821,65330
20050,1370,1314,1305,1369,65377,142034,161821,65330
20050,1371,1318,1313,1374,65377,142034,161821,65330
20050,1370,1323,1316,1369,65377,142034,161821,65330
20050,1371,1325,1324,1371,65377,142034,161821,65330
20050,1376,1331,1326,1374,65377,142034,161821,65330
20050,1372,1327,1325,1373,65377,142034,161821,65330
19683,1369,1329,1323,1369,65377,142034,161821,65330
20050,1371,1322,1322,1372,65377,142034,161821,65330
20050,1372,1324,1321,1376,65377,142034,161821,65330
20050,1374,1320,1314,1369,65377,142034,161821,65330
20050,1370,1320,1310,1370,65377,142034,161821,65330
20080,1368,1323,1309,1373,65377,142034,161821,65330
20050,1372,1321,1301,1373,65377,142034,161821,65330
19683,1369,1321,1298,1372,65377,142034,161821,65330
20050,1372,1323,1297,1372,65377,142034,161821,65330
20050,1369,1318,1292,1369,65377,142034,161821,65330
20050,1368,1311,1294,1371,65377,142034,161821,65330
20050,1372,1315,1296,1368,65377,142034,161821,65330
20050,1373,1313,1296,1372,65377,142034,161821,65330
20050,1370,1317,1295,1368,65377,142034,161821,65330
20050,1369,1315,1296,1371,65377,142034,161821,65330
19683,1370,1318,1295,1372,65377,142034,161821,65330
20050,1375,1311,1289,1368,65377,142034,161821,65330
20050,1369,1314,1286,1369,65377,142034,161821,65330
20050,1369,1310,1289,1372,65377,142034,161821,65330
20050,1369,1312,1283,1372,65377,142034,161821,65330
20050,1370,1303,1283,1367,65377,142034,161821,65330
20050,1368,1305,1284,1370,65377,142034,161821,65330
19683,1369,1306,1285,1370,65377,142034,161821,65330
20050,1370,1312,1281,1370,65377,142034,161821,65330
20050,1368,1308,1275,1372,65377,142034,161821,65330
20050,1368,1311,1272,1369,65377,142034,161821,65330
20050,1368,1311,1270,1371,65377,142034,161821,65330
20050,1369,1310,1281,1368,65377,142034,161821,65330
20050,1371,1310,1299,1369,65377,142034,161821,65330
20050,1371,1318,1325,1369,65377,142034,161821,65330
19683,1369,1325,1345,1374,65377,142034,161821,65330
20050,1372,1334,1357,1373,65377,142034,161821,65330
20050,1372,1339,1361,1371,65377,142034,161821,65330
20050,1372,1339,1362,1369,65377,142034,161821,65330
20050,1372,1334,1350,1373,65377,142034,161821,65330
20050,1370,1331,1342,1372,65377,142034,161821,65330
20050,1372,1328,1334,1371,65377,142034,161821,65330
19683,1373,1326,1328,1371,65377,142034,161821,65330
20050,1370,1317,1318,1370,65377,142034,161821,65330
20050,1368,1323,1319,1370,65377,142034,161821,65330
20050,1372,1323,1317,1372,65377,142034,161821,65330
20050,1371,1325,1318,1370,65377,142034,161821,65330
20050,1368,1327,1315,1370,65377,142034,161821,65330
20050,1369,1330,1327,1373,65377,142034,161821,65330
20050,1370,1332,1330,1370,65377,142034,161821,65330
19683,1371,1332,1334,1371,65377,142034,161821,65330
20050,1370,1329,1335,1368,65377,142034,161821,65330
20050,1371,1330,1336,1369,65377,142034,161821,65330
20050,1368,1329,1331,1378,65377,142034,161821,65330
20050,1371,1333,1328,1369,65377,142034,161821,65330
20050,1372,1331,1325,1368,65377,142034,161821,65330
20050,1373,1328,1313,1371,65377,142034,161821,65330
19683,1373,1329,1312,1372,65377,142034,161821,65330
20050,1372,1325,1308,1372,65377,142034,161821,65330
20050,1373,1322,1304,1369,65377,142034,161821,65330
20050,1370,1317,1298,1370,65377,142034,161821,65330
20050,1370,1311,1304,1372,65377,142034,161821,65330
20050,1367,1312,1302,1373,65377,142034,161821,65330
20050,1368,1319,1299,1371,65377,142034,161821,65330
20050,1368,1317,1296,1370,65377,142034,161821,65330
19683,1371,1318,1297,1368,65377,142034,161821,65330
20050,1372,1320,1293,1369,65377,142034,161821,65330
20050,1371,1320,1290,1369,65377,142034,161821,65330
20050,1370,1317,1292,1370,65377,142034,161821,65330
20050,1371,1314,1294,1368,65377,142034,161821,65330
20050,1368,1308,1290,1374,65377,142034,161821,65330
20050,1372,1319,1291,1374,65377,142034,161821,65330
19683,1369,1312,1286,1371,65377,142034,161821,65330
20050,1369,1318,1281,1370,65377,142034,161821,65330
20050,1371,1313,1275,1370,65377,142034,161821,65330
20050,1372,1309,1272,1368,65377,142034,161821,65330
20050,1367,1305,1269,1370,65377,142034,161821,65330
20050,1371,1302,1268,1368,65377,142034,161821,65330
20050,1367,1294,1266,1371,65377,142034,161821,65330
20050,1370,1298,1270,1370,65377,142034,161821,65330
19683,1368,1299,1264,1367,65377,142034,161821,65330
20050,1366,1303,1267,1371,65377,142034,161821,65330
20050,1370,1303,1270,1373,65377,142034,161821,65330
20050,1368,1316,1294,1370,65377,142034,161821,65330
20050,1372,1324,1317,1371,65377,142034,161821,65330
20050,1372,1334,1334,1372,65377,142034,161821,65330
20050,1371,1331,1342,1373,65377,142034,161821,65330
19683,1370,1329,1349,1373,65377,142034,161821,65330
20050,1376,1333,1350,1374,65377,142034,161821,65330
20050,1371,1334,1339,1374,65377,142034,161821,65330
20050,1368,1329,1329,1371,65377,142034,161821,65330
20050,1368,1330,1321,1370,65377,142034,161821,65330
20050,1373,1319,1307,1371,65377,142034,161821,65330
20050,1376,1319,1298,1375,65377,142034,161821,65330
20050,1367,1310,1293,1367,65377,142034,161821,65330
19683,1369,1307,1290,1369,65377,142034,161821,65330
20050,1372,1304,1291,1371,65377,142034,161821,65330
20050,1370,1313,1302,1369,65377,142034,161821,65330
20050,1370,1316,1309,1371,65377,142034,161821,65330
20050,1370,1321,1313,1371,65377,142034,161821,65330
20050,1371,1325,1314,1371,65377,142034,161821,65330
20050,1370,1328,1315,1370,65377,142034,161821,65330
19683,1370,1324,1314,1367,65377,142034,161821,65330
20050,1370,1321,1308,1373,65377,142034,161821,65330
20050,1373,1320,1306,1369,65377,142034,161821,65330
20050,1370,1316,1303,1370,65377,142034,161821,65330
20050,1371,1314,1298,1378,65377,142034,161821,65330
20050,1372,1315,1296,1373,65377,142034,161821,65330
20050,1369,1317,1290,1370,65377,142034,161821,65330
20050,1373,1317,1284,1374,65377,142034,161821,65330
19683,1373,1310,1279,1370,65377,142034,161821,65330
20050,1374,1307,1278,1366,65377,142034,161821,65330
20050,1368,1307,1274,1372,65377,142034,161821,65330
20050,1372,1302,1274,1370,65377,142034,161821,65330
20080,1372,1307,1276,1370,65377,142081,162432,65330
20050,1370,1300,1291,1374,65377,142081,162432,65330
20050,1368,1306,1292,1374,65377,142081,162432,65330
19683,1369,1304,1289,1373,65377,142081,162432,65330
20050,1372,1312,1291,1370,65377,142081,162432,65330
20050,1374,1308,1290,1371,65377,142081,162432,65330
20050,1374,1307,1286,1374,65377,142081,162432,65330
20050,1373,1302,1283,1372,65377,142081,162432,65330
20050,1369,1301,1282,1369,65377,142081,162432,65330
20050,1370,1294,1281,1368,65377,142081,162432,65330
19683,1368,1297,1281,1370,65377,142081,162432,65330
20050,1373,1298,1281,1370,65377,142081,162432,65330
20050,1370,1303,1277,1370,65377,142081,162432,65330
20050,1371,1295,1273,1369,65377,142081,162432,65330
20050,1370,1300,1272,1370,65377,142081,162432,65330
20050,1371,1303,1287,1370,65377,142081,162432,65330
20050,1372,1312,1313,1372,65377,142081,162432,65330
20050,1371,1319,1334,1370,65377,142081,162432,65330
19683,1373,1324,1352,1373,65377,142081,162432,65330
20050,1373,1326,1358,1376,65377,142081,162432,65330
20050,1372,1334,1361,1376,65377,142081,162432,65330
20050,1371,1330,1354,1376,65377,142081,162432,65330
20050,1372,1336,1346,1369,65377,142081,162432,65330
20050,1374,1328,1340,1371,65377,142081,162432,65330
20050,1372,1319,1323,1371,65377,142081,162432,65330
20050,1373,1317,1318,1369,65377,142081,162432,65330
19683,1368,1306,1310,1369,65377,142081,162432,65330
20050,1368,1301,1306,1371,65377,142081,162432,65330
20050,1371,1309,1309,1372,65377,142081,162432,65330
20050,1371,1306,1311,1370,65377,142081,162432,65330
20050,1367,1314,1319,1369,65377,142081,162432,65330
20050,1367,1315,1321,1370,65377,142081,162432,65330
20050,1373,1320,1329,1372,65377,142081,162432,65330
19683,1373,1318,1333,1370,65377,142081,162432,65330
20050,1371,1319,1332,1371,65377,142081,162432,65330
20050,1372,1319,1331,1371,65377,142081,162432,65330
20050,1371,1320,1332,1370,65377,142081,162432,65330
20050,1369,1313,1327,1374,65377,142081,162432,65330
20050,1373,1314,1323,1377,65377,142081,162432,65330
20050,1372,1318,1310,1371,65377,142081,162432,65330
20050,1371,1316,1312,1371,65377,142081,162432,65330
19683,1374,1313,1310,1371,65377,142081,162432,65330
20050,1376,1307,1302,1368,65377,142081,162432,65330
20050,1374,1306,1302,1367,65377,142081,162432,65330
20050,1370,1298,1295,1370,65377,142081,162432,65330
20050,1369,1298,1301,1372,65377,142081,162432,65330
20050,1372,1302,1299,1369,65377,142081,162432,65330
20050,1371,1303,1298,1371,65377,142081,162432,65330
19683,1369,1304,1293,1372,65377,142081,162432,65330
20050,1367,1305,1292,1369,65377,142081,162432,65330
20050,1371,1304,1294,1373,65377,142081,162432,65330
20050,1369,1301,1292,1366,65377,142081,162432,65330
20050,1368,1299,1288,1367,65377,142081,162432,65330
20050,1369,1298,1293,1369,65377,142081,162432,65330
20050,1368,1295,1293,1371,65377,142081,162432,65330
20050,1371,1302,1288,1375,65377,142081,162432,65330
19683,1368,1295,1285,1372,65377,142081,162432,65330
20050,1366,1301,1283,1375,65377,142081,162432,65330
20050,1369,1297,1286,1370,65377,142081,162432,65330
20050,1372,1299,1281,1369,65377,142081,162432,65330
20050,1375,1293,1272,1370,65377,142081,162432,65330
20050,1372,1291,1273,1368,65377,142081,162432,65330
20050,1368,1284,1277,1368,65377,142081,162432,65330
19683,1370,1289,1291,1372,65377,142081,162432,65330
20050,1370,1305,1317,1372,65377,142081,162432,65330
20050,1369,1317,1344,1369,65377,142081,162432,65330
20050,1370,1323,1362,1371,65377,142081,162432,65330
20050,1373,1333,1366,1370,65377,142081,162432,65330
20050,1370,1329,1369,1371,65377,142081,162432,65330
20050,1370,1328,1366,1374,65377,142081,162432,65330
20050,1372,1320,1360,1370,65377,142081,162432,65330
19683,1370,1323,1359,1370,65377,142081,162432,65330
20050,1371,1321,1347,1372,65377,142081,162432,65330
20050,1368,1322,1340,1370,65377,142081,162432,65330
20050,1369,1313,1329,1372,65377,142081,162432,65330
20050,1369,1318,1324,1373,65377,142081,162432,65330
20050,1372,1309,1324,1371,65377,142081,162432,65330
20050,1371,1310,1323,1369,65377,142081,162432,65330
19683,1374,1307,1324,1367,65377,142081,162432,65330
20050,1375,1311,1332,1369,65377,142081,162432,65330
20050,1370,1309,1338,1371,65377,142081,162432,65330
20050,1369,1316,1343,1370,65377,142081,162432,65330
20050,1367,1316,1347,1370,65377,142081,162432,65330
20050,1370,1323,1352,1372,65377,142081,162432,65330
20050,1370,1320,1340,1372,65377,142081,162432,65330
20050,1369,1323,1334,1370,65377,142081,162432,65330
19683,1372,1312,1330,1370,65377,142081,162432,65330
20050,1367,1308,1326,1369,65377,142081,162432,65330
20050,1370,1309,1324,1369,65377,142081,162432,65330
20050,1370,1307,1324,1371,65377,142081,162432,65330
20050,1369,1301,1317,1371,65377,142081,162432,65330
20050,1369,1307,1320,1374,65377,142081,162432,65330
20050,1374,1314,1313,1374,65377,142081,162432,65330
19683,1369,1311,1311,1375,65377,142081,162432,65330
20050,1371,1302,1309,1369,65377,142081,162432,65330
20050,1373,1297,1308,1370,65377,142081,162432,65330
20050,1374,1298,1305,1368,65377,142081,162432,65330
20050,1374,1296,1303,1371,65377,142081,162432,65330
20050,1368,1295,1308,1370,65377,142081,162432,65330
20050,1367,1295,1309,1370,65377,142081,162432,65330
20050,1368,1303,1306,1370,65377,142081,162432,65330
19683,1367,1299,1304,1369,65377,142081,162432,65330
20050,1367,1299,1301,1372,65377,142081,162432,65330
20050,1371,1294,1300,1370,65377,142081,162432,65330
20050,1368,1297,1299,1368,65377,142081,162432,65330
20050,1368,1289,1295,1369,65377,142081,162432,65330
20050,1373,1293,1299,1369,65377,142081,162432,65330
20050,1371,1288,1294,1370,65377,142081,162432,65330
19683,1365,1293,1290,1367,65377,142081,162432,65330
20050,1372,1291,1286,1375,65377,142081,162432,65330
20050,1369,1295,1283,1376,65377,142081,162432,65330
20050,1368,1298,1296,1373,65377,142081,162432,65330
20050,1368,1303,1319,1370,65377,142081,162432,65330
20050,1375,1311,1344,1370,65377,142081,162432,65330
20050,1372,1316,1357,1371,65377,142081,162432,65330
20050,1372,1317,1368,1370,65377,142081,162432,65330
19683,1370,1320,1373,1370,65377,142081,162432,65330
20050,1369,1323,1368,1368,65377,142081,162432,65330
20050,1369,1326,1364,1370,65377,142081,162432,65330
20050,1369,1315,1351,1368,65377,142081,162432,65330
20050,1369,1312,1340,1368,65377,142081,162432,65330
20050,1369,1304,1336,1371,65377,142081,162432,65330
20050,1369,1304,1325,1370,65377,142081,162432,65330
20050,1373,1295,1319,1368,65377,142081,162432,65330
19683,1367,1297,1317,1369,65377,142081,162432,65330
20050,1369,1297,1315,1371,65377,142081,162432,65330
20050,1371,1301,1320,1370,65377,142081,162432,65330
20080,1373,1302,1326,1371,65377,142081,162432,65330
20050,1371,1309,1330,1370,65377,142081,162432,65330
20050,1369,1308,1330,1367,65377,142081,162432,65330
19683,1368,1307,1332,1370,65377,142081,162432,65330
20050,1370,1304,1330,1368,65377,142081,162432,65330
20050,1369,1300,1323,1371,65377,142081,162432,65330
20050,1370,1297,1322,1370,65377,142081,162432,65330
20050,1371,1297,1319,1372,65377,142081,162432,65330
20050,1370,1294,1313,1369,65377,142081,162432,65330
20050,1368,1297,1308,1368,65377,142081,162432,65330
20050,1368,1295,1298,1372,65377,142081,162432,65330
19683,1368,1294,1298,1376,65377,142081,162432,65330
20050,1368,1287,1294,1367,65377,142081,162432,65330
20050,1369,1286,1291,1369,65377,142081,162432,65330
20050,1372,1285,1291,1368,65377,142081,162432,65330
20050,1371,1281,1283,1372,65377,142081,162432,65330
20050,1367,1286,1289,1368,65377,142081,162432,65330
20050,1372,1280,1288,1371,65377,142081,162432,65330
20050,1369,1289,1287,1367,65377,142081,162432,65330
19683,1370,1285,1281,1367,65377,142081,162432,65330
20050,1369,1285,1279,1371,65377,142081,162432,65330
20050,1372,1280,1282,1370,65377,142081,162432,65330
20050,1371,1281,1275,1371,65377,142081,162432,65330
20080,1370,1275,1280,1369,65330,142692,162526,65330
20050,1369,1295,1277,1371,65330,142692,162526,65330
19683,1374,1293,1272,1370,65330,142692,162526,65330
20050,1368,1295,1274,1371,65330,142692,162526,65330
20050,1367,1288,1273,1368,65330,142692,162526,65330
20050,1370,1295,1271,1372,65330,142692,162526,65330
20050,1367,1290,1267,1371,65330,142692,162526,65330
20050,1369,1295,1260,1368,65330,142692,162526,65330
20050,1368,1283,1259,1367,65330,142692,162526,65330
20050,1365,1287,1264,1368,65330,142692,162526,65330
19683,1372,1289,1284,1370,65330,142692,162526,65330
20050,1370,1302,1310,1369,65330,142692,162526,65330
20050,1368,1319,1334,1373,65330,142692,162526,65330
20050,1373,1329,1348,1372,65330,142692,162526,65330
20050,1370,1328,1353,1372,65330,142692,162526,65330
20050,1370,1335,1349,1372,65330,142692,162526,65330
20050,1372,1327,1342,1374,65330,142692,162526,65330
19683,1371,1322,1334,1370,65330,142692,162526,65330
20050,1369,1312,1329,1370,65330,142692,162526,65330
20050,1371,1313,1320,1369,65330,142692,162526,65330
20050,1370,1308,1314,1371,65330,142692,162526,65330
20050,1365,1306,1306,1370,65330,142692,162526,65330
20050,1370,1300,1303,1368,65330,142692,162526,65330
20050,1372,1302,1303,1370,65330,142692,162526,65330
20050,1368,1307,1300,1367,65330,142692,162526,65330
19683,1369,1309,1310,1370,65330,142692,162526,65330
20050,1369,1307,1318,1371,65330,142692,162526,65330
20050,1369,1306,1324,1370,65330,142692,162526,65330
20050,1368,1314,1330,1371,65330,142692,162526,65330
20050,1371,1314,1334,1373,65330,142692,162526,65330
20050,1369,1318,1333,1371,65330,142692,162526,65330
20050,1372,1318,1332,1372,65330,142692,162526,65330
20050,1372,1323,1320,1371,65330,142692,162526,65330
19683,1371,1318,1316,1369,65330,142692,162526,65330
20050,1368,1309,1313,1371,65330,142692,162526,65330
20050,1368,1306,1306,1367,65330,142692,162526,65330
20050,1370,1303,1307,1371,65330,142692,162526,65330
20050,1369,1297,1304,1370,65330,142692,162526,65330
20050,1368,1303,1304,1369,65330,142692,162526,65330
20050,1366,1298,1299,1369,65330,142692,162526,65330
19683,1370,1302,1299,1370,65330,142692,162526,65330
20050,1371,1300,1293,1369,65330,142692,162526,65330
20050,1371,1303,1291,1369,65330,142692,162526,65330
20050,1368,1296,1290,1369,65330,142692,162526,65330
20050,1370,1297,1293,1369,65330,142692,162526,65330
20050,1370,1292,1293,1369,65330,142692,162526,65330
20050,1370,1292,1294,1365,65330,142692,162526,65330
20050,1367,1292,1292,1369,65330,142692,162526,65330
19683,1367,1301,1297,1371,65330,142692,162526,65330
20050,1368,1301,1290,1369,65330,142692,162526,65330
20050,1369,1302,1288,1368,65330,142692,162526,65330
20050,1368,1296,1286,1370,65330,142692,162526,65330
20050,1368,1300,1284,1368,65330,142692,162526,65330
20050,1369,1287,1281,1366,65330,142692,162526,65330
20050,1367,1287,1284,1366,65330,142692,162526,65330
19683,1367,1286,1282,1372,65330,142692,162526,65330
20050,1368,1289,1282,1367,65330,142692,162526,65330
20050,1368,1296,1293,1370,65330,142692,162526,65330
20050,1368,1306,1314,1369,65330,142692,162526,65330
20050,1373,1311,1331,1367,65330,142692,162526,65330
20050,1369,1323,1352,1371,65330,142692,162526,65330
20050,1371,1324,1364,1370,65330,142692,162526,65330
20050,1370,1327,1365,1370,65330,142692,162526,65330
19683,1371,1317,1364,1367,65330,142692,162526,65330
20050,1371,1321,1363,1371,65330,142692,162526,65330
20050,1368,1319,1358,1371,65330,142692,162526,65330
20050,1369,1319,1346,1370,65330,142692,162526,65330
20050,1369,1317,1332,1371,65330,142692,162526,65330
20050,1365,1317,1324,1370,65330,142692,162526,65330
20050,1372,1309,1320,1379,65330,142692,162526,65330
19683,1366,1305,1318,1369,65330,142692,162526,65330
20050,1369,1302,1312,1369,65330,142692,162526,65330
20050,1369,1304,1322,1371,65330,142692,162526,65330
20050,1370,1306,1330,1372,65330,142692,162526,65330
20050,1370,1315,1341,1371,65330,142692,162526,65330
20050,1371,1319,1341,1369,65330,142692,162526,65330
20050,1372,1319,1347,1369,65330,142692,162526,65330
20050,1375,1320,1341,1369,65330,142692,162526,65330
19958,1372,1313,1340,1370,65330,142692,162526,65330
20050,1372,1308,1335,1372,65330,142692,162526,65330
19958,1368,1318,1326,1375,65330,142692,162526,65330
20050,1368,1317,1326,1372,65330,142692,162526,65330
19958,1373,1302,1320,1368,65330,142692,162526,65330
19683,1369,1301,1319,1373,65330,142692,162526,65330
20050,1369,1297,1316,1374,65330,142692,162526,65330
20050,1369,1305,1312,1372,65330,142692,162526,65330
20050,1369,1299,1312,1373,65330,142692,162526,65330
20050,1368,1305,1311,1367,65330,142692,162526,65330
20050,1370,1301,1300,1370,65330,142692,162526,65330
20080,1370,1299,1303,1370,65330,142692,162526,65330
19683,1368,1294,1306,1368,65330,142692,162526,65330
20050,1370,1298,1305,1371,65330,142692,162526,65330
20050,1369,1296,1304,1369,65330,142692,162526,65330
20050,1368,1295,1305,1368,65330,142692,162526,65330
20050,1368,1295,1307,1372,65330,142692,162526,65330
20050,1371,1296,1307,1376,65330,142692,162526,65330
20050,1369,1303,1304,1373,65330,142692,162526,65330
20050,1368,1300,1303,1371,65330,142692,162526,65330
19958,1367,1291,1295,1372,65330,142692,162526,65330
20050,1372,1287,1298,1367,65330,142692,162526,65330
19958,1371,1291,1300,1368,65330,142692,162526,65330
20050,1367,1297,1290,1367,65330,142692,162526,65330
19683,1366,1295,1290,1367,65330,142692,162526,65330
20050,1368,1291,1289,1369,65330,142692,162526,65330
20050,1370,1292,1293,1369,65330,142692,162526,65330
20050,1370,1296,1321,1371,65330,142692,162526,65330
20050,1370,1308,1345,1375,65330,142692,162526,65330
20050,1371,1320,1366,1370,65330,142692,162526,65330
20050,1370,1324,1378,1371,65330,142692,162526,65330
19958,1373,1327,1376,1376,65330,142692,162526,65330
20050,1371,1329,1377,1370,65330,142692,162526,65330
19958,1371,1318,1376,1371,65330,142692,162526,65330
20050,1372,1323,1369,1374,65330,142692,162526,65330
19683,1371,1318,1356,1374,65330,142692,162526,65330
20050,1370,1318,1349,1374,65330,142692,162526,65330
20050,1371,1311,1340,1371,65330,142692,162526,65330
20050,1377,1306,1334,1370,65330,142692,162526,65330
20050,1376,1300,1326,1376,65330,142692,162526,65330
20050,1370,1298,1326,1372,65330,142692,162526,65330
20050,1369,1294,1326,1371,65330,142692,162526,65330
19958,1372,1312,1337,1371,65330,142692,162526,65330
20050,1375,1316,1344,1370,65330,142692,162526,65330
19958,1369,1307,1346,1372,65330,142692,162526,65330
20050,1367,1312,1352,1369,65330,142692,162526,65330
19958,1369,1316,1355,1371,65330,142692,162526,65330
20050,1375,1318,1351,1377,65330,142692,162526,65330
19958,1371,1307,1342,1373,65330,142692,162526,65330
20050,1370,1303,1339,1367,65330,142692,162526,65330
19683,1369,1301,1339,1374,65330,142692,162526,65330
20050,1372,1298,1333,1372,65330,142692,162526,65330
20050,1374,1301,1330,1373,65330,142692,162526,65330
20050,1368,1297,1320,1375,65330,142692,162526,65330
20050,1371,1299,1322,1375,65330,142692,162526,65330
20050,1370,1296,1316,1370,65330,142692,162526,65330
20050,1375,1293,1313,1370,65330,142692,162526,65330
19958,1369,1286,1313,1371,65330,142692,162526,65330
20050,1369,1290,1313,1374,65330,142692,162526,65330
19683,1367,1289,1310,1373,65330,142692,162526,65330
20050,1370,1295,1308,1368,65330,142692,162526,65330
20050,1376,1291,1304,1369,65330,142692,162526,65330
20050,1371,1290,1299,1370,65330,142692,162526,65330
20050,1373,1288,1304,1370,65330,142692,162526,65330
20050,1371,1286,1303,1372,65330,142692,162526,65330
20050,1369,1283,1300,1370,65330,142692,162526,65330
19958,1368,1287,1304,1366,65330,142692,162526,65330
20050,1374,1286,1302,1372,65330,142692,162526,65330
19958,1368,1280,1299,1368,65330,142692,162526,65330
20050,1375,1280,1297,1371,65330,142692,162526,65330
19958,1370,1285,1294,1373,65330,142692,162526,65330
20050,1370,1288,1287,1372,65330,142692,162526,65330
19714,1366,1279,1289,1369,65283,143397,162479,65330
20050,1370,1301,1296,1372,65283,143397,162479,65330
20050,1369,1302,1310,1367,65283,143397,162479,65330
20050,1368,1314,1332,1370,65283,143397,162479,65330
20050,1368,1324,1353,1372,65283,143397,162479,65330
20050,1372,1328,1367,1372,65283,143397,162479,65330
20050,1370,1330,1369,1369,65283,143397,162479,65330
20050,1369,1329,1369,1370,65283,143397,162479,65330
19683,1371,1328,1358,1376,65283,143397,162479,65330
20050,1371,1332,1349,1374,65283,143397,162479,65330
20050,1369,1321,1334,1375,65283,143397,162479,65330
20050,1370,1315,1331,1367,65283,143397,162479,65330
20050,1374,1307,1323,1371,65283,143397,162479,65330
20050,1372,1301,1312,1370,65283,143397,162479,65330
19958,1368,1304,1312,1373,65283,143397,162479,65330
20050,1368,1311,1307,1372,65283,143397,162479,65330
19958,1365,1305,1314,1371,65283,143397,162479,65330
20050,1372,1303,1317,1369,65283,143397,162479,65330
20050,1369,1311,1332,1371,65283,143397,162479,65330
19683,1371,1311,1337,1373,65283,143397,162479,65330
20050,1370,1319,1337,1377,65283,143397,162479,65330
20050,1371,1320,1336,1372,65283,143397,162479,65330
20050,1370,1324,1334,1372,65283,143397,162479,65330
20050,1374,1311,1323,1368,65283,143397,162479,65330
20050,1371,1316,1319,1369,65283,143397,162479,65330
19958,1372,1307,1317,1370,65283,143397,162479,65330
20050,1370,1308,1315,1372,65283,143397,162479,65330
19958,1370,1312,1305,1374,65283,143397,162479,65330
20050,1369,1304,1303,1372,65283,143397,162479,65330
20050,1371,1305,1308,1369,65283,143397,162479,65330
19683,1375,1297,1307,1371,65283,143397,162479,65330
20050,1376,1298,1297,1367,65283,143397,162479,65330
20050,1370,1295,1298,1369,65283,143397,162479,65330
20050,1371,1298,1301,1370,65283,143397,162479,65330
20050,1368,1299,1300,1369,65283,143397,162479,65330
20050,1369,1302,1301,1371,65283,143397,162479,65330
19958,1368,1300,1297,1367,65283,143397,162479,65330
20050,1373,1298,1296,1366,65283,143397,162479,65330
19958,1370,1300,1305,1375,65283,143397,162479,65330
20050,1369,1309,1303,1369,65283,143397,162479,65330
19958,1370,1300,1296,1373,65283,143397,162479,65330
20050,1367,1295,1294,1366,65283,143397,162479,65330
20050,1368,1295,1294,1368,65283,143397,162479,65330
19683,1371,1292,1293,1373,65283,143397,162479,65330
20050,1371,1299,1292,1369,65283,143397,162479,65330
20050,1366,1297,1299,1367,65283,143397,162479,65330
20050,1369,1306,1317,1369,65283,143397,162479,65330
20050,1374,1314,1338,1373,65283,143397,162479,65330
20050,1370,1328,1357,1369,65283,143397,162479,65330
19958,1373,1327,1366,1370,65283,143397,162479,65330
20050,1368,1336,1378,1372,65283,143397,162479,65330
19958,1371,1339,1375,1375,65283,143397,162479,65330
20050,1374,1334,1375,1369,65283,143397,162479,65330
20050,1374,1327,1370,1371,65283,143397,162479,65330
20050,1373,1322,1358,1368,65283,143397,162479,65330
19683,1373,1320,1351,1370,65283,143397,162479,65330
20050,1373,1312,1341,1370,65283,143397,162479,65330
20050,1371,1313,1342,1371,65283,143397,162479,65330
20050,1370,1312,1337,1369,65283,143397,162479,65330
20050,1368,1315,1338,1368,65283,143397,162479,65330
19958,1377,1316,1338,1369,65283,143397,162479,65330
20050,1371,1318,1348,1368,65283,143397,162479,65330
19958,1367,1326,1363,1369,65283,143397,162479,65330
20050,1368,1329,1366,1372,65283,143397,162479,65330
19958,1371,1329,1367,1372,65283,143397,162479,65330
20050,1373,1325,1370,1371,65283,143397,162479,65330
19958,1372,1325,1367,1371,65283,143397,162479,65330
20050,1372,1326,1365,1372,65283,143397,162479,65330
20050,1370,1332,1359,1373,65283,143397,162479,65330
20050,1371,1328,1356,1372,65283,143397,162479,65330
19683,1372,1321,1351,1370,65283,143397,162479,65330
20050,1371,1319,1345,1374,65283,143397,162479,65330
20050,1375,1316,1340,1373,65283,143397,162479,65330
20050,1376,1308,1338,1369,65283,143397,162479,65330
20050,1370,1306,1337,1368,65283,143397,162479,65330
19958,1369,1318,1337,1371,65283,143397,162479,65330
20050,1373,1314,1329,1370,65283,143397,162479,65330
19958,1369,1311,1335,1369,65283,143397,162479,65330
20050,1370,1312,1335,1372,65283,143397,162479,65330
20050,1371,1316,1336,1368,65283,143397,162479,65330
20050,1370,1314,1337,1370,65283,143397,162479,65330
19683,1370,1319,1337,1369,65283,143397,162479,65330
20050,1371,1315,1328,1370,65283,143397,162479,65330
20050,1366,1316,1329,1372,65283,143397,162479,65330
20050,1371,1309,1325,1369,65283,143397,162479,65330
20050,1366,1311,1328,1368,65283,143397,162479,65330
19958,1372,1313,1330,1369,65283,143397,162479,65330
20050,1367,1308,1326,1368,65283,143397,162479,65330
19958,1366,1311,1323,1369,65283,143397,162479,65330
20050,1372,1308,1320,1369,65283,143397,162479,65330
19958,1367,1308,1322,1372,65283,143397,162479,65330
20050,1369,1310,1326,1371,65283,143397,162479,65330
20050,1367,1325,1349,1371,65283,143397,162479,65330
20050,1370,1334,1373,1370,65283,143397,162479,65330
19683,1372,1339,1389,1371,65283,143397,162479,65330
20050,1373,1344,1401,1368,65283,143397,162479,65330
20050,1372,1343,1406,1371,65283,143397,162479,65330
20050,1369,1340,1406,1371,65283,143397,162479,65330
20050,1372,1343,1408,1371,65283,143397,162479,65330
19958,1369,1349,1399,1372,65283,143397,162479,65330
20050,1373,1339,1390,1371,65283,143397,162479,65330
19958,1373,1334,1385,1370,65283,143397,162479,65330
20050,1372,1327,1377,1372,65283,143397,162479,65330
20050,1369,1330,1370,1370,65283,143397,162479,65330
20050,1372,1326,1369,1370,65283,143397,162479,65330
20050,1371,1327,1368,1369,65283,143397,162479,65330
19683,1367,1329,1368,1371,65283,143397,162479,65330
20050,1370,1336,1378,1371,65283,143397,162479,65330
20050,1373,1333,1381,1372,65283,143397,162479,65330
20050,1372,1338,1382,1368,65283,143397,162479,65330
19958,1370,1336,1388,1372,65283,143397,162479,65330
20050,1372,1341,1390,1371,65283,143397,162479,65330
19958,1378,1343,1381,1368,65283,143397,162479,65330
20050,1371,1335,1377,1373,65283,143397,162479,65330
19958,1371,1333,1382,1377,65283,143397,162479,65330
20050,1372,1336,1374,1370,65283,143397,162479,65330
20050,1369,1338,1368,1369,65283,143397,162479,65330
20050,1375,1333,1366,1371,65283,143397,162479,65330
20050,1374,1331,1361,1372,65283,143397,162479,65330
19683,1369,1331,1357,1372,65283,143397,162479,65330
20050,1370,1321,1356,1370,65283,143397,162479,65330
20050,1370,1321,1354,1369,65283,143397,162479,65330
20050,1369,1318,1360,1372,65283,143397,162479,65330
19958,1371,1328,1357,1369,65283,143397,162479,65330
20050,1369,1327,1349,1368,65283,143397,162479,65330
19958,1374,1325,1355,1370,65283,143397,162479,65330
20050,1373,1327,1348,1370,65283,143397,162479,65330
20050,1369,1321,1354,1371,65283,143397,162479,65330
20050,1371,1324,1354,1370,65283,143397,162479,65330
20050,1370,1325,1353,1366,65283,143397,162479,65330
19683,1367,1324,1348,1370,65283,143397,162479,65330
20050,1369,1328,1345,1369,65283,143397,162479,65330
20050,1373,1323,1345,1372,65283,143397,162479,65330
20050,1370,1317,1336,1371,65283,143397,162479,65330
19958,1370,1315,1337,1369,65283,143397,162479,65330
20050,1366,1315,1335,1367,65283,143397,162479,65330
19958,1375,1319,1327,1372,65283,143397,162479,65330
20050,1372,1315,1328,1367,65283,143397,162479,65330
19958,1369,1316,1341,1368,65283,143397,162479,65330
20050,1366,1332,1365,1370,65283,143397,162479,65330
20050,1372,1335,1391,1371,65283,143397,162479,65330
20050,1372,1345,1407,1371,65283,143397,162479,65330
20050,1370,1348,1413,1372,65283,143397,162479,65330
19683,1372,1352,1416,1375,65283,143397,162479,65330
20050,1371,1347,1413,1374,65283,143397,162479,65330
20050,1375,1346,1409,1372,65283,143397,162479,65330
20050,1373,1343,1404,1370,65283,143397,162479,65330
19958,1369,1346,1401,1372,65283,143397,162479,65330
20050,1372,1341,1391,1372,65283,143397,162479,65330
19958,1379,1340,1387,1372,65283,143397,162479,65330
20080,1371,1339,1377,1371,65236,143350,161022,65330
