370,65236,143350,161022,65330
20233,1366,1339,1307,1369,65236,143350,161022,65330
19866,1363,1333,1300,1368,65236,143350,161022,65330
19866,1362,1344,1305,1375,65236,143350,161022,65330
20233,1366,1337,1314,1372,65236,143350,161022,65330
42,1310,1369,65236,143350,161022,65330
19866,1364,1339,1319,1368,65236,143350,161022,65330
20233,1369,1341,1324,1371,65236,143350,161022,65330
19866,1366,1355,1325,1375,65236,143350,161022,65330
19866,1366,1344,1335,1368,65236,143350,161022,65330
20233,1365,1352,1331,1371,65236,143350,161022,65330
19866,1363,1355,1339,1373,65236,143350,161022,65330
20233,1369,1349,1341,1371,65236,143350,161022,65330
19866,1365,1359,1341,1371,65236,143350,161022,65330
19866,1364,1359,1348,1375,65236,143350,161022,65330
20233,1366,1362,1343,1371,65236,143350,161022,65330
19866,1366,1370,1358,1369,65236,143350,161022,65330
19866,1366,1363,119500,2475,760,340,2479,62980,84365,131835,62980
20477,2479,758,310,2477,62980,84365,131835,62980
20324,2478,743,257,2477,62980,84365,131835,62980
19683,2476,727,161,2471,62980,84365,131835,62980
20324,2476,691,81,2475,62980,84365,131835,62980
19683,2475,672,64,2477,62980,84365,131835,62980
20050,2477,683,40,2477,62980,84365,131835,62980
20050,2475,709,46,2478,62980,84365,131835,62980
20050,2476,723,46,2477,62980,84365,131835,62980
20050,2477,738,95,2477,62980,84365,131835,62980
20050,2477,741,137,2478,62980,84365,131835,62980
20050,2477,738,214,2477,62980,84365,131835,62980
20050,2472,726,276,2477,62980,84365,131835,62980
19683,2475,738,340,2475,62980,84365,131835,62980
20050,2476,725,347,2479,62980,84365,131835,62980
20050,2474,709,329,2481,62980,84365,131835,62980
20050,2475,679,292,2475,62980,84365,131835,62980
20050,2470,662,264,2478,62980,84365,131835,62980
20050,2478,659,250,2477,62980,84365,131835,62980
20050,2480,673,283,2479,62980,84365,131835,62980
19683,2478,676,318,2478,62980,84365,131835,62980
20050,2473,690,334,2482,62980,84365,131835,62980
20050,2475,689,340,2476,62980,84365,131835,62980
20050,2479,688,317,2479,62980,84365,131835,62980
20050,2474,679,307,2477,62980,84365,131835,62980
20050,2476,672,309,2480,62980,84365,131835,62980
20050,2475,678,305,2477,62980,84365,131835,62980
20050,2477,686,326,2475,62980,84365,131835,62980
19683,2477,704,353,2477,62980,84365,131835,62980
20050,2477,719,380,2481,62980,84365,131835,62980
20050,2477,736,427,2478,62980,84365,131835,62980
20050,2478,752,440,2476,62980,84365,131835,62980
20050,2476,751,466,2477,62980,84365,131835,62980
20050,2480,772,467,2480,62980,84365,131835,62980
20050,2477,772,476,2479,62980,84365,131835,62980
19683,2480,778,473,2479,62980,84365,131835,62980
20050,2478,760,438,2479,62980,84365,131835,62980
20050,2475,724,409,2477,62980,84365,131835,62980
20050,2476,701,392,2476,62980,84365,131835,62980
20050,2478,707,427,2478,62980,84365,131835,62980
20050,2479,717,463,2480,62980,84365,131835,62980
20050,2478,733,442,2481,62980,84365,131835,62980
20050,2475,724,400,2479,62980,84365,131835,62980
19683,2474,711,315,2478,62980,84365,131835,62980
20050,2478,695,314,2479,62980,84365,131835,62980
20050,2476,698,335,2478,62980,84365,131835,62980
20050,2475,711,393,2478,62980,84365,131835,62980
20050,2475,710,431,2476,62980,84365,131835,62980
20050,2480,697,386,2479,62980,84365,131835,62980
20050,2484,646,304,2481,62980,84365,131835,62980
19683,2478,607,227,2482,62980,84365,131835,62980
20050,2477,591,178,2481,62980,84365,131835,62980
20050,2475,614,225,2477,62980,84365,131835,62980
20050,2479,655,245,2479,62980,84365,131835,62980
20050,2477,682,289,2478,62980,84365,131835,62980
20050,2481,699,283,2480,62980,84365,131835,62980
20050,2477,715,320,2481,62980,84365,131835,62980
20050,2477,712,331,2481,62980,84365,131835,62980
19683,2480,712,302,2480,62980,84365,131835,62980
20050,2480,692,246,2479,62980,84365,131835,62980
20050,2479,683,254,2483,62980,84365,131835,62980
20050,2481,695,265,2480,62980,84365,131835,62980
20050,2479,720,331,2478,62980,84365,131835,62980
20050,2479,731,308,2482,62980,84365,131835,62980
20050,2483,731,323,2480,62980,84365,131835,62980
20050,2482,704,289,2480,62980,84365,131835,62980
19683,2479,688,284,2479,62980,84365,131835,62980
20050,2475,687,303,2479,62980,84365,131835,62980
20050,2478,679,259,2478,62980,84365,131835,62980
20050,2478,664,244,2477,62980,84365,131835,62980
20050,2477,674,224,2485,62980,84365,131835,62980
20050,2479,678,223,2481,62980,84365,131835,62980
20050,2478,686,242,2482,62980,84365,131835,62980
19683,2478,706,258,2478,62980,84365,131835,62980
20050,2478,716,280,2480,62980,84365,131835,62980
20050,2476,706,238,2480,62980,84365,131835,62980
20050,2479,702,228,2477,62980,84365,131835,62980
20050,2479,693,233,2478,62980,84365,131835,62980
20050,2478,693,188,2481,62980,84365,131835,62980
20050,2477,682,157,2479,62980,84365,131835,62980
20050,2478,694,173,2480,62980,84365,131835,62980
19683,2476,698,159,2480,62980,84365,131835,62980
20050,2476,703,141,2478,62980,84365,131835,62980
20050,2476,708,84,2478,62980,84365,131835,62980
20050,2478,693,44,2477,62980,84365,131835,62980
20050,2475,685,40,2479,62980,84365,131835,62980
20050,2476,718,94,2480,62980,84365,131835,62980
20050,2476,741,213,2477,62980,84365,131835,62980
19683,2477,767,288,2478,62980,84365,131835,62980
20050,2477,770,440,2483,62980,84365,131835,62980
20050,2479,753,458,2479,62980,84365,131835,62980
20050,2482,736,421,2481,62980,84365,131835,62980
20050,2476,714,421,2478,62980,84365,131835,62980
20050,2479,722,401,2480,62980,84365,131835,62980
20050,2478,736,405,2481,62980,84365,131835,62980
20050,2481,740,390,2479,62980,84365,131835,62980
19683,2476,756,357,2482,62980,84365,131835,62980
20050,2477,762,349,2479,62980,84365,131835,62980
20050,2481,762,315,2479,62980,84365,131835,62980
20050,2480,767,349,2477,62980,84365,131835,62980
20050,2477,767,348,2479,62980,84365,131835,62980
20050,2477,761,344,2479,62980,84365,131835,62980
20050,2478,738,325,2476,62980,84365,131835,62980
19683,2475,743,285,2478,62980,84365,131835,62980
20050,2476,742,263,2480,62980,84365,131835,62980
20050,2477,752,254,2479,62980,84365,131835,62980
20050,2477,764,254,2476,62980,84365,131835,62980
20050,2476,775,271,2477,62980,84365,131835,62980
20050,2479,776,246,2478,62980,84365,131835,62980
20050,2478,782,254,2480,62980,84365,131835,62980
20050,2480,771,247,2481,62980,84365,131835,62980
19683,2477,786,269,2479,62980,84365,131835,62980
20050,2477,792,285,2476,62980,84365,131835,62980
20080,2480,812,302,2479,62980,84412,132164,62980
20050,2478,808,567,2479,62980,84412,132164,62980
20050,2475,803,564,2479,62980,84412,132164,62980
20050,2477,808,582,2481,62980,84412,132164,62980
20050,2476,814,621,2478,62980,84412,132164,62980
19683,2477,821,631,2480,62980,84412,132164,62980
20050,2479,820,631,2477,62980,84412,132164,62980
20050,2479,819,641,2481,62980,84412,132164,62980
20050,2479,831,643,2476,62980,84412,132164,62980
20050,2474,834,671,2476,62980,84412,132164,62980
20050,2478,851,653,2480,62980,84412,132164,62980
20050,2479,848,646,2480,62980,84412,132164,62980
19683,2480,848,626,2482,62980,84412,132164,62980
20050,2479,848,644,2480,62980,84412,132164,62980
20050,2479,858,666,2479,62980,84412,132164,62980
20050,2480,859,670,2480,62980,84412,132164,62980
20050,2479,849,670,2480,62980,84412,132164,62980
20050,2479,843,679,2479,62980,84412,132164,62980
20050,2477,851,675,2480,62980,84412,132164,62980
20050,2477,841,660,2480,62980,84412,132164,62980
19683,2480,843,626,2478,62980,84412,132164,62980
20050,2481,855,669,2480,62980,84412,132164,62980
20050,2480,872,704,2479,62980,84412,132164,62980
20050,2476,883,719,2480,62980,84412,132164,62980
20050,2476,886,729,2480,62980,84412,132164,62980
20050,2480,881,720,2479,62980,84412,132164,62980
20050,2481,873,705,2480,62980,84412,132164,62980
19683,2481,883,742,2481,62980,84412,132164,62980
20050,2480,906,745,2484,62980,84412,132164,62980
20050,2477,908,742,2478,62980,84412,132164,62980
20050,2480,910,725,2477,62980,84412,132164,62980
20050,2479,904,733,2479,62980,84412,132164,62980
20050,2479,905,738,2482,62980,84412,132164,62980
20050,2478,915,752,2480,62980,84412,132164,62980
20050,2476,910,739,2479,62980,84412,132164,62980
19683,2479,906,732,2479,62980,84412,132164,62980
20050,2480,898,714,2477,62980,84412,132164,62980
20050,2480,907,720,2479,62980,84412,132164,62980
20050,2475,919,709,2481,62980,84412,132164,62980
20050,2475,929,727,2481,62980,84412,132164,62980
20050,2477,928,710,2480,62980,84412,132164,62980
20050,2477,925,727,2481,62980,84412,132164,62980
19683,2480,921,721,2479,62980,84412,132164,62980
20050,2480,929,729,2480,62980,84412,132164,62980
20050,2478,921,697,2479,62980,84412,132164,62980
20050,2478,922,675,2479,62980,84412,132164,62980
20050,2477,911,656,2480,62980,84412,132164,62980
20050,2479,911,653,2481,62980,84412,132164,62980
20050,2477,908,628,2482,62980,84412,132164,62980
20050,2476,905,639,2474,62980,84412,132164,62980
19683,2478,900,631,2478,62980,84412,132164,62980
20050,2481,889,620,2478,62980,84412,132164,62980
20050,2478,882,608,2483,62980,84412,132164,62980
20050,2477,884,647,2480,62980,84412,132164,62980
20050,2476,891,690,2479,62980,84412,132164,62980
20050,2482,912,720,2480,62980,84412,132164,62980
20050,2479,911,749,2479,62980,84412,132164,62980
19683,2480,917,773,2481,62980,84412,132164,62980
20050,2478,920,782,2482,62980,84412,132164,62980
20050,2476,919,785,2475,62980,84412,132164,62980
20050,2478,915,762,2480,62980,84412,132164,62980
20050,2478,922,748,2480,62980,84412,132164,62980
20050,2478,917,745,2481,62980,84412,132164,62980
20050,2480,933,747,2480,62980,84412,132164,62980
20050,2477,941,762,2480,62980,84412,132164,62980
19683,2479,955,750,2479,62980,84412,132164,62980
20050,2478,955,759,2481,62980,84412,132164,62980
20050,2479,955,750,2483,62980,84412,132164,62980
20050,2475,945,744,2477,62980,84412,132164,62980
20050,2474,940,746,2474,62980,84412,132164,62980
20050,2479,939,750,2478,62980,84412,132164,62980
20050,2479,937,762,2481,62980,84412,132164,62980
20050,2478,933,736,2479,62980,84412,132164,62980
19683,2478,943,736,2479,62980,84412,132164,62980
20050,2473,947,744,2477,62980,84412,132164,62980
20050,2481,950,702,2479,62980,84412,132164,62980
20050,2482,939,709,2479,62980,84412,132164,62980
20050,2481,930,677,2482,62980,84412,132164,62980
20050,2481,930,660,2481,62980,84412,132164,62980
20050,2479,925,668,2480,62980,84412,132164,62980
19683,2479,934,659,2478,62980,84412,132164,62980
20050,2482,941,644,2482,62980,84412,132164,62980
20050,2478,938,637,2480,62980,84412,132164,62980
20050,2479,935,608,2478,62980,84412,132164,62980
20050,2477,944,637,2478,62980,84412,132164,62980
20050,2479,956,647,2479,62980,84412,132164,62980
20050,2479,950,658,2481,62980,84412,132164,62980
20050,2479,941,622,2482,62980,84412,132164,62980
19683,2478,932,615,2481,62980,84412,132164,62980
20050,2478,932,595,2480,62980,84412,132164,62980
20050,2481,954,618,2477,62980,84412,132164,62980
20050,2477,955,611,2477,62980,84412,132164,62980
20050,2474,954,589,2477,62980,84412,132164,62980
20050,2477,945,582,2479,62980,84412,132164,62980
20050,2478,948,601,2477,62980,84412,132164,62980
19683,2479,950,591,2480,62980,84412,132164,62980
20050,2480,945,584,2480,62980,84412,132164,62980
20050,2478,933,536,2481,62980,84412,132164,62980
20050,2476,928,524,2481,62980,84412,132164,62980
20050,2476,918,512,2478,62980,84412,132164,62980
20050,2477,930,500,2483,62980,84412,132164,62980
20050,2479,928,490,2480,62980,84412,132164,62980
20050,2477,937,495,2480,62980,84412,132164,62980
19683,2481,930,506,2480,62980,84412,132164,62980
20050,2476,924,530,2476,62980,84412,132164,62980
20050,2475,918,546,2478,62980,84412,132164,62980
20050,2479,923,584,2478,62980,84412,132164,62980
20050,2480,927,589,2480,62980,84412,132164,62980
20050,2480,939,606,2484,62980,84412,132164,62980
20050,2475,928,580,2478,62980,84412,132164,62980
19683,2481,932,547,2480,62980,84412,132164,62980
20050,2479,932,565,2480,62980,84412,132164,62980
20050,2478,941,572,2480,62980,84412,132164,62980
20050,2477,937,558,2478,62980,84412,132164,62980
20050,2475,942,561,2478,62980,84412,132164,62980
20050,2476,951,562,2477,62980,84412,132164,62980
20050,2478,950,548,2479,62980,84412,132164,62980
20050,2478,938,512,2478,62980,84412,132164,62980
19683,2476,922,495,2477,62980,84412,132164,62980
20050,2476,898,495,2478,62980,84412,132164,62980
20050,2478,894,487,2479,62980,84412,132164,62980
20050,2479,888,519,2478,62980,84412,132164,62980
20050,2479,901,518,2480,62980,84412,132164,62980
20050,2480,914,550,2479,62980,84412,132164,62980
20050,2476,905,520,2478,62980,84412,132164,62980
19683,2477,898,498,2477,62980,84412,132164,62980
20050,2477,893,483,2477,62980,84412,132164,62980
20050,2479,900,513,2477,62980,84412,132164,62980
20050,2474,906,536,2478,62980,84412,132164,62980
20050,2476,898,528,2478,62980,84412,132164,62980
20050,2479,893,485,2478,62980,84412,132164,62980
20050,2478,885,491,2479,62980,84412,132164,62980
20050,2478,890,479,2483,62980,84412,132164,62980
19683,2480,903,499,2480,62980,84412,132164,62980
20050,2477,906,481,2477,62980,84412,132164,62980
20050,2477,909,481,2481,62980,84412,132164,62980
20050,2477,896,479,2477,62980,84412,132164,62980
20050,2480,899,502,2481,62980,84412,132164,62980
20050,2476,914,529,2480,62980,84412,132164,62980
20050,2476,915,534,2477,62980,84412,132164,62980
19683,2479,912,513,2480,62980,84412,132164,62980
20050,2480,899,534,2481,62980,84412,132164,62980
20050,2475,912,515,2480,62980,84412,132164,62980
20050,2479,924,508,2478,62980,84412,132164,62980
20050,2478,917,485,2478,62980,84412,132164,62980
20050,2479,919,478,2483,62980,84412,132164,62980
20050,2481,910,476,2477,62980,84412,132164,62980
20050,2480,902,458,2483,62980,84412,132164,62980
19683,2478,895,454,2481,62980,84412,132164,62980
20050,2478,899,461,2478,62980,84412,132164,62980
20080,2482,900,405,2480,62980,84271,132211,62980
20050,2479,897,383,2479,62980,84271,132211,62980
20050,2477,887,335,2480,62980,84271,132211,62980
20050,2479,893,344,2480,62980,84271,132211,62980
20050,2478,900,378,2478,62980,84271,132211,62980
19683,2477,910,406,2480,62980,84271,132211,62980
20050,2478,889,442,2479,62980,84271,132211,62980
20050,2479,894,456,2479,62980,84271,132211,62980
20050,2475,906,513,2479,62980,84271,132211,62980
20050,2476,917,515,2478,62980,84271,132211,62980
20050,2478,911,472,2481,62980,84271,132211,62980
20050,2480,890,420,2483,62980,84271,132211,62980
19683,2480,897,399,2481,62980,84271,132211,62980
20050,2479,912,413,2478,62980,84271,132211,62980
20050,2477,918,419,2479,62980,84271,132211,62980
20050,2479,928,416,2480,62980,84271,132211,62980
20050,2478,927,448,2478,62980,84271,132211,62980
20050,2478,924,436,2482,62980,84271,132211,62980
20050,2478,911,436,2479,62980,84271,132211,62980
20050,2479,913,421,2479,62980,84271,132211,62980
19683,2480,912,422,2476,62980,84271,132211,62980
20050,2479,912,420,2477,62980,84271,132211,62980
20050,2479,917,424,2479,62980,84271,132211,62980
20050,2477,913,425,2480,62980,84271,132211,62980
20050,2479,902,441,2476,62980,84271,132211,62980
20050,2478,904,441,2482,62980,84271,132211,62980
20050,2480,911,459,2484,62980,84271,132211,62980
19683,2479,899,394,2481,62980,84271,132211,62980
20050,2477,895,389,2481,62980,84271,132211,62980
20050,2474,899,367,2477,62980,84271,132211,62980
20050,2477,914,359,2481,62980,84271,132211,62980
20050,2478,903,335,2481,62980,84271,132211,62980
20050,2480,886,301,2481,62980,84271,132211,62980
20050,2477,880,281,2479,62980,84271,132211,62980
20050,2478,887,306,2477,62980,84271,132211,62980
19683,2477,900,314,2483,62980,84271,132211,62980
20050,2480,897,340,2478,62980,84271,132211,62980
20050,2478,907,335,2478,62980,84271,132211,62980
20050,2480,920,370,2482,62980,84271,132211,62980
20050,2481,925,383,2479,62980,84271,132211,62980
20050,2481,935,386,2483,62980,84271,132211,62980
20050,2481,919,382,2480,62980,84271,132211,62980
19683,2480,924,390,2482,62980,84271,132211,62980
20050,2478,930,414,2479,62980,84271,132211,62980
20050,2477,940,419,2475,62980,84271,132211,62980
20050,2481,940,388,2477,62980,84271,132211,62980
20050,2478,939,386,2479,62980,84271,132211,62980
20050,2480,941,396,2479,62980,84271,132211,62980
20050,2478,955,395,2482,62980,84271,132211,62980
20050,2477,946,387,2479,62980,84271,132211,62980
19683,2478,941,358,2478,62980,84271,132211,62980
20050,2476,915,349,2479,62980,84271,132211,62980
20050,2482,928,371,2477,62980,84271,132211,62980
20050,2477,928,372,2478,62980,84271,132211,62980
20050,2475,934,376,2480,62980,84271,132211,62980
20050,2480,935,336,2481,62980,84271,132211,62980
20050,2479,932,338,2478,62980,84271,132211,62980
20050,2477,941,384,2481,62980,84271,132211,62980
19683,2477,970,459,2483,62980,84271,132211,62980
20050,2475,973,510,2478,62980,84271,132211,62980
20050,2479,988,574,2483,62980,84271,132211,62980
20050,2478,982,604,2479,62980,84271,132211,62980
20050,2478,983,599,2480,62980,84271,132211,62980
20050,2479,986,599,2480,62980,84271,132211,62980
20050,2478,985,583,2477,62980,84271,132211,62980
19683,2480,989,568,2481,62980,84271,132211,62980
20050,2478,992,575,2482,62980,84271,132211,62980
20050,2478,1007,582,2479,62980,84271,132211,62980
20050,2478,1021,620,2479,62980,84271,132211,62980
20050,2476,1015,624,2474,62980,84271,132211,62980
20050,2480,1020,618,2481,62980,84271,132211,62980
20050,2481,1008,615,2477,62980,84271,132211,62980
20050,2477,998,582,2480,62980,84271,132211,62980
19683,2478,995,609,2477,62980,84271,132211,62980
20050,2476,1004,583,2478,62980,84271,132211,62980
20050,2481,1009,583,2480,62980,84271,132211,62980
20050,2478,1000,591,2481,62980,84271,132211,62980
20050,2479,998,598,2483,62980,84271,132211,62980
20050,2477,999,601,2480,62980,84271,132211,62980
20050,2477,1001,609,2477,62980,84271,132211,62980
19683,2481,994,568,2480,62980,84271,132211,62980
20050,2480,990,575,2479,62980,84271,132211,62980
20050,2478,1003,545,2481,62980,84271,132211,62980
20050,2478,997,535,2478,62980,84271,132211,62980
20050,2477,989,519,2475,62980,84271,132211,62980
20050,2475,1005,549,2481,62980,84271,132211,62980
20050,2479,1006,561,2480,62980,84271,132211,62980
20050,2476,1000,541,2480,62980,84271,132211,62980
19683,2476,990,536,2477,62980,84271,132211,62980
20050,2475,998,539,2476,62980,84271,132211,62980
20050,2477,1006,527,2481,62980,84271,132211,62980
20050,2476,1005,523,2484,62980,84271,132211,62980
20050,2481,1007,496,2480,62980,84271,132211,62980
20050,2476,1001,493,2478,62980,84271,132211,62980
20050,2478,992,480,2478,62980,84271,132211,62980
19683,2480,1000,495,2481,62980,84271,132211,62980
20050,2479,982,475,2478,62980,84271,132211,62980
20050,2480,978,449,2479,62980,84271,132211,62980
20050,2478,972,439,2478,62980,84271,132211,62980
20050,2478,990,452,2482,62980,84271,132211,62980
20050,2481,997,436,2480,62980,84271,132211,62980
20050,2479,986,415,2479,62980,84271,132211,62980
20050,2477,972,377,2478,62980,84271,132211,62980
19683,2479,957,351,2478,62980,84271,132211,62980
20050,2480,949,325,2477,62980,84271,132211,62980
20050,2479,956,348,2480,62980,84271,132211,62980
20050,2479,948,368,2480,62980,84271,132211,62980
20050,2477,949,339,2477,62980,84271,132211,62980
20050,2479,949,323,2478,62980,84271,132211,62980
20050,2479,947,291,2478,62980,84271,132211,62980
19683,2479,952,317,2479,62980,84271,132211,62980
20050,2479,955,374,2480,62980,84271,132211,62980
20050,2480,960,406,2479,62980,84271,132211,62980
20050,2477,957,443,2479,62980,84271,132211,62980
20050,2482,968,490,2475,62980,84271,132211,62980
20050,2477,989,529,2479,62980,84271,132211,62980
20050,2480,986,546,2479,62980,84271,132211,62980
20050,2477,987,519,2481,62980,84271,132211,62980
19683,2474,985,520,2478,62980,84271,132211,62980
20050,2478,988,510,2476,62980,84271,132211,62980
20050,2477,1005,533,2477,62980,84271,132211,62980
20050,2478,1010,561,2479,62980,84271,132211,62980
20050,2480,1013,572,2480,62980,84271,132211,62980
20050,2479,1009,562,2483,62980,84271,132211,62980
20050,2477,999,543,2481,62980,84271,132211,62980
19683,2480,1008,543,2479,62980,84271,132211,62980
20050,2483,1003,573,2476,62980,84271,132211,62980
20050,2477,1010,565,2480,62980,84271,132211,62980
20050,2479,1021,576,2479,62980,84271,132211,62980
20050,2478,1025,594,2479,62980,84271,132211,62980
20050,2477,1031,637,2482,62980,84271,132211,62980
20050,2484,1036,669,2477,62980,84271,132211,62980
20050,2478,1037,661,2480,62980,84271,132211,62980
19683,2479,1022,613,2480,62980,84271,132211,62980
20050,2481,1016,619,2478,62980,84271,132211,62980
20050,2480,1040,619,2482,62980,84271,132211,62980
20050,2477,1046,624,2476,62980,84271,132211,62980
20050,2480,1044,600,2481,62980,84271,132211,62980
20050,2477,1033,577,2480,62980,84271,132211,62980
20050,2477,1011,528,2479,62980,84271,132211,62980
19683,2478,1029,577,2483,62980,84271,132211,62980
20050,2479,1031,585,2482,62980,84271,132211,62980
20050,2479,1050,607,2478,62980,84271,132211,62980
20050,2474,1041,593,2481,62980,84271,132211,62980
20050,2478,1032,575,2478,62980,84271,132211,62980
20050,2478,1027,561,2481,62980,84271,132211,62980
20050,2479,1038,603,2478,62980,84271,132211,62980
20050,2478,1046,600,2479,62980,84271,132211,62980
19683,2477,1044,615,2479,62980,84271,132211,62980
20050,2478,1036,583,2479,62980,84271,132211,62980
20080,2480,1045,598,2477,62980,84083,132399,62980
20050,2480,795,844,2481,62980,84083,132399,62980
20050,2476,798,812,2479,62980,84083,132399,62980
20050,2476,793,791,2478,62980,84083,132399,62980
20050,2479,788,734,2477,62980,84083,132399,62980
19683,2478,773,685,2478,62980,84083,132399,62980
20050,2479,757,662,2480,62980,84083,132399,62980
20050,2478,742,609,2479,62980,84083,132399,62980
20050,2473,739,618,2476,62980,84083,132399,62980
20050,2478,744,616,2477,62980,84083,132399,62980
20050,2478,749,599,2482,62980,84083,132399,62980
20050,2479,736,577,2477,62980,84083,132399,62980
19683,2478,737,590,2475,62980,84083,132399,62980
20050,2473,758,681,2477,62980,84083,132399,62980
20050,2476,784,753,2478,62980,84083,132399,62980
20050,2478,808,824,2480,62980,84083,132399,62980
20050,2477,805,856,2482,62980,84083,132399,62980
20050,2476,805,870,2480,62980,84083,132399,62980
20050,2480,815,877,2479,62980,84083,132399,62980
20050,2478,825,884,2480,62980,84083,132399,62980
19683,2478,831,858,2482,62980,84083,132399,62980
20050,2478,840,892,2480,62980,84083,132399,62980
20050,2477,864,899,2479,62980,84083,132399,62980
20050,2479,867,903,2475,62980,84083,132399,62980
20050,2477,860,883,2480,62980,84083,132399,62980
20050,2480,858,889,2482,62980,84083,132399,62980
20050,2480,838,895,2479,62980,84083,132399,62980
20050,2476,834,879,2481,62980,84083,132399,62980
19683,2480,837,890,2477,62980,84083,132399,62980
20050,2477,840,864,2477,62980,84083,132399,62980
20050,2480,836,840,2480,62980,84083,132399,62980
20050,2479,839,887,2479,62980,84083,132399,62980
20050,2479,850,880,2480,62980,84083,132399,62980
20050,2477,849,877,2479,62980,84083,132399,62980
20050,2478,830,843,2478,62980,84083,132399,62980
19683,2481,837,853,2481,62980,84083,132399,62980
20050,2480,828,827,2481,62980,84083,132399,62980
20050,2479,834,798,2479,62980,84083,132399,62980
20050,2476,824,772,2476,62980,84083,132399,62980
20050,2478,827,753,2479,62980,84083,132399,62980
20050,2481,828,724,2482,62980,84083,132399,62980
20050,2481,833,747,2480,62980,84083,132399,62980
20050,2480,834,763,2482,62980,84083,132399,62980
19683,2476,839,793,2479,62980,84083,132399,62980
20050,2481,834,775,2480,62980,84083,132399,62980
20050,2481,836,784,2483,62980,84083,132399,62980
20050,2479,822,790,2481,62980,84083,132399,62980
20050,2478,830,790,2482,62980,84083,132399,62980
20050,2477,834,787,2479,62980,84083,132399,62980
20050,2477,832,760,2479,62980,84083,132399,62980
19683,2478,822,748,2480,62980,84083,132399,62980
20050,2480,816,751,2480,62980,84083,132399,62980
20050,2478,811,733,2478,62980,84083,132399,62980
20050,2478,818,751,2478,62980,84083,132399,62980
20050,2475,800,705,2482,62980,84083,132399,62980
20050,2475,799,684,2481,62980,84083,132399,62980
20050,2481,794,680,2479,62980,84083,132399,62980
20050,2479,810,687,2480,62980,84083,132399,62980
19683,2477,806,691,2478,62980,84083,132399,62980
20050,2478,805,680,2478,62980,84083,132399,62980
20050,2479,793,669,2481,62980,84083,132399,62980
20050,2479,800,679,2478,62980,84083,132399,62980
20050,2478,810,698,2478,62980,84083,132399,62980
20050,2479,819,732,2480,62980,84083,132399,62980
20050,2480,825,765,2479,62980,84083,132399,62980
19683,2480,839,832,2479,62980,84083,132399,62980
20050,2480,855,920,2477,62980,84083,132399,62980
20050,2472,883,976,2479,62980,84083,132399,62980
20050,2478,892,1026,2478,62980,84083,132399,62980
20050,2476,895,1037,2476,62980,84083,132399,62980
20050,2478,899,1040,2479,62980,84083,132399,62980
20050,2481,901,1052,2483,62980,84083,132399,62980
20050,2479,920,1062,2479,62980,84083,132399,62980
19683,2478,935,1091,2479,62980,84083,132399,62980
20050,2478,952,1093,2477,62980,84083,132399,62980
20050,2481,960,1094,2475,62980,84083,132399,62980
20050,2476,960,1139,2479,62980,84083,132399,62980
20050,2478,968,1142,2481,62980,84083,132399,62980
20050,2480,962,1159,2482,62980,84083,132399,62980
20050,2483,949,1135,2476,62980,84083,132399,62980
19683,2484,951,1158,2483,62980,84083,132399,62980
20050,2481,949,1163,2481,62980,84083,132399,62980
20050,2480,968,1188,2478,62980,84083,132399,62980
20050,2478,969,1194,2480,62980,84083,132399,62980
20050,2481,975,1183,2481,62980,84083,132399,62980
20050,2479,966,1160,2478,62980,84083,132399,62980
20050,2482,957,1152,2482,62980,84083,132399,62980
20050,2481,953,1117,2482,62980,84083,132399,62980
19683,2480,944,1117,2480,62980,84083,132399,62980
20050,2477,941,1071,2479,62980,84083,132399,62980
20050,2480,941,1041,2480,62980,84083,132399,62980
20050,2480,929,1011,2480,62980,84083,132399,62980
20050,2478,929,989,2481,62980,84083,132399,62980
20050,2478,931,989,2481,62980,84083,132399,62980
20050,2480,944,1008,2481,62980,84083,132399,62980
19683,2476,943,1024,2479,62980,84083,132399,62980
20050,2481,942,1050,2480,62980,84083,132399,62980
20050,2480,944,1041,2481,62980,84083,132399,62980
20050,2479,952,1063,2479,62980,84083,132399,62980
20050,2479,958,1054,2479,62980,84083,132399,62980
20050,2481,964,1062,2480,62980,84083,132399,62980
20050,2480,964,1054,2481,62980,84083,132399,62980
20050,2480,968,1056,2481,62980,84083,132399,62980
19683,2480,972,1079,2478,62980,84083,132399,62980
20050,2478,985,1093,2480,62980,84083,132399,62980
20050,2480,981,1093,2483,62980,84083,132399,62980
20050,2479,968,1085,2480,62980,84083,132399,62980
20050,2478,965,1067,2480,62980,84083,132399,62980
20050,2478,964,1073,2480,62980,84083,132399,62980
20050,2479,976,1069,2482,62980,84083,132399,62980
19683,2483,977,1067,2483,62980,84083,132399,62980
20050,2482,967,1048,2481,62980,84083,132399,62980
20050,2475,962,1031,2478,62980,84083,132399,62980
20050,2478,963,1060,2480,62980,84083,132399,62980
20050,2480,976,1072,2482,62980,84083,132399,62980
20050,2478,978,1104,2484,62980,84083,132399,62980
20050,2480,978,1155,2479,62980,84083,132399,62980
20050,2478,992,1187,2483,62980,84083,132399,62980
19683,2480,1009,1243,2480,62980,84083,132399,62980
20050,2480,1040,1285,2478,62980,84083,132399,62980
20050,2480,1060,1364,2480,62980,84083,132399,62980
20050,2479,1065,1387,2483,62980,84083,132399,62980
20050,2480,1067,1365,2481,62980,84083,132399,62980
20050,2479,1063,1394,2479,62980,84083,132399,62980
20050,2479,1081,1387,2480,62980,84083,132399,62980
20050,2478,1088,1394,2482,62980,84083,132399,62980
19683,2482,1102,1420,2483,62980,84083,132399,62980
20050,2479,1123,1449,2479,62980,84083,132399,62980
20050,2478,1123,1447,2482,62980,84083,132399,62980
20050,2480,1120,1446,2479,62980,84083,132399,62980
20050,2481,1108,1446,2481,62980,84083,132399,62980
20050,2479,1110,1468,2482,62980,84083,132399,62980
20050,2480,1107,1467,2483,62980,84083,132399,62980
19683,2475,1100,1477,2480,62980,84083,132399,62980
20050,2475,1106,1456,2478,62980,84083,132399,62980
20050,2482,1118,1481,2482,62980,84083,132399,62980
20050,2479,1124,1494,2484,62980,84083,132399,62980
20050,2480,1131,1494,2480,62980,84083,132399,62980
20050,2480,1125,1497,2484,62980,84083,132399,62980
20050,2479,1133,1493,2481,62980,84083,132399,62980
20050,2482,1139,1509,2479,62980,84083,132399,62980
19683,2479,1142,1526,2483,62980,84083,132399,62980
20050,2481,1147,1509,2478,62980,84083,132399,62980
20050,2476,1150,1508,2480,62980,84083,132399,62980
20050,2481,1155,1490,2478,62980,84083,132399,62980
20050,2477,1168,1519,2483,62980,84083,132399,62980
20050,2481,1173,1525,2482,62980,84083,132399,62980
20050,2478,1176,1539,2485,62980,84083,132399,62980
19683,2479,1170,1554,2480,62980,84083,132399,62980
20050,2478,1183,1581,2480,62980,84083,132399,62980
20080,2484,1184,1589,2482,62980,83942,132070,62980
20050,2478,954,1358,2480,62980,83942,132070,62980
20050,2480,953,1350,2481,62980,83942,132070,62980
20050,2478,964,1362,2479,62980,83942,132070,62980
20050,2479,960,1334,2480,62980,83942,132070,62980
19683,2480,967,1334,2485,62980,83942,132070,62980
20050,2477,960,1337,2479,62980,83942,132070,62980
20050,2474,965,1336,2482,62980,83942,132070,62980
20050,2476,961,1356,2479,62980,83942,132070,62980
20050,2477,971,1341,2479,62980,83942,132070,62980
20050,2477,961,1332,2480,62980,83942,132070,62980
20050,2479,957,1324,2479,62980,83942,132070,62980
20050,2479,957,1313,2480,62980,83942,132070,62980
19683,2479,965,1328,2481,62980,83942,132070,62980
20050,2480,970,1313,2480,62980,83942,132070,62980
20050,2476,981,1321,2484,62980,83942,132070,62980
20050,2479,977,1351,2479,62980,83942,132070,62980
20050,2480,989,1382,2479,62980,83942,132070,62980
20050,2481,985,1433,2480,62980,83942,132070,62980
20050,2477,990,1453,2479,62980,83942,132070,62980
19683,2480,985,1494,2483,62980,83942,132070,62980
20050,2480,994,1493,2483,62980,83942,132070,62980
20050,2477,1002,1486,2480,62980,83942,132070,62980
20050,2478,992,1458,2479,62980,83942,132070,62980
20050,2481,1001,1453,2480,62980,83942,132070,62980
20050,2478,1003,1440,2477,62980,83942,132070,62980
20050,2479,1007,1446,2480,62980,83942,132070,62980
20050,2477,1011,1434,2479,62980,83942,132070,62980
19683,2476,1012,1453,2478,62980,83942,132070,62980
20050,2480,1020,1424,2481,62980,83942,132070,62980
20050,2477,1025,1405,2480,62980,83942,132070,62980
20050,2481,1018,1392,2480,62980,83942,132070,62980
20050,2476,1019,1411,2481,62980,83942,132070,62980
20050,2479,1026,1422,2480,62980,83942,132070,62980
20050,2480,1032,1429,2479,62980,83942,132070,62980
19683,2478,1022,1423,2484,62980,83942,132070,62980
20050,2478,1011,1408,2481,62980,83942,132070,62980
20050,2477,1016,1400,2481,62980,83942,132070,62980
20050,2476,1022,1408,2479,62980,83942,132070,62980
20050,2480,1028,1398,2480,62980,83942,132070,62980
20050,2479,1031,1382,2481,62980,83942,132070,62980
20050,2480,1030,1361,2480,62980,83942,132070,62980
20050,2479,1038,1376,2480,62980,83942,132070,62980
19683,2479,1030,1359,2477,62980,83942,132070,62980
20050,2478,1023,1341,2484,62980,83942,132070,62980
20050,2479,1025,1330,2478,62980,83942,132070,62980
20050,2478,1028,1317,2480,62980,83942,132070,62980
20050,2478,1036,1324,2480,62980,83942,132070,62980
20050,2481,1056,1356,2480,62980,83942,132070,62980
20050,2482,1057,1342,2477,62980,83942,132070,62980
19683,2480,1054,1334,2482,62980,83942,132070,62980
20050,2478,1044,1338,2481,62980,83942,132070,62980
20050,2479,1052,1338,2477,62980,83942,132070,62980
20050,2475,1041,1335,2474,62980,83942,132070,62980
20050,2476,1050,1330,2480,62980,83942,132070,62980
20050,2477,1041,1313,2480,62980,83942,132070,62980
20050,2480,1046,1304,2479,62980,83942,132070,62980
20050,2478,1051,1296,2481,62980,83942,132070,62980
19683,2480,1046,1285,2479,62980,83942,132070,62980
20050,2481,1047,1266,2478,62980,83942,132070,62980
20050,2479,1043,1272,2484,62980,83942,132070,62980
20050,2478,1032,1265,2480,62980,83942,132070,62980
20050,2476,1027,1235,2479,62980,83942,132070,62980
20050,2477,1021,1238,2479,62980,83942,132070,62980
20050,2479,1027,1240,2480,62980,83942,132070,62980
19683,2480,1022,1210,2479,62980,83942,132070,62980
20050,2481,1014,1189,2479,62980,83942,132070,62980
20050,2481,1011,1211,2479,62980,83942,132070,62980
20050,2479,1011,1264,2478,62980,83942,132070,62980
20050,2483,1017,1314,2480,62980,83942,132070,62980
20050,2479,1022,1348,2481,62980,83942,132070,62980
20050,2482,1022,1367,2480,62980,83942,132070,62980
20050,2477,1033,1349,2480,62980,83942,132070,62980
19683,2476,1025,1360,2477,62980,83942,132070,62980
20050,2479,1040,1313,2481,62980,83942,132070,62980
20050,2480,1051,1336,2482,62980,83942,132070,62980
20050,2480,1060,1318,2482,62980,83942,132070,62980
20050,2479,1065,1323,2479,62980,83942,132070,62980
20050,2476,1062,1326,2481,62980,83942,132070,62980
20050,2479,1075,1343,2479,62980,83942,132070,62980
19683,2481,1065,1329,2479,62980,83942,132070,62980
20050,2476,1047,1314,2479,62980,83942,132070,62980
20050,2479,1049,1321,2483,62980,83942,132070,62980
20050,2478,1066,1354,2478,62980,83942,132070,62980
20050,2479,1057,1326,2478,62980,83942,132070,62980
20050,2479,1043,1334,2481,62980,83942,132070,62980
20050,2478,1043,1346,2481,62980,83942,132070,62980
20050,2481,1046,1378,2482,62980,83942,132070,62980
19683,2481,1040,1384,2479,62980,83942,132070,62980
20050,2477,1048,1394,2480,62980,83942,132070,62980
20050,2478,1043,1392,2481,62980,83942,132070,62980
20050,2479,1052,1394,2482,62980,83942,132070,62980
20050,2478,1061,1395,2481,62980,83942,132070,62980
20050,2478,1075,1400,2479,62980,83942,132070,62980
20050,2482,1072,1373,2477,62980,83942,132070,62980
20050,2479,1062,1382,2481,62980,83942,132070,62980
19958,2480,1061,1403,2481,62980,83942,132070,62980
19683,2479,1078,1430,2478,62980,83942,132070,62980
20050,2478,1079,1406,2479,62980,83942,132070,62980
20050,2481,1083,1398,2479,62980,83942,132070,62980
20050,2481,1086,1425,2480,62980,83942,132070,62980
20050,2482,1106,1452,2480,62980,83942,132070,62980
20050,2477,1109,1457,2481,62980,83942,132070,62980
20050,2477,1103,1468,2481,62980,83942,132070,62980
20050,2479,1104,1451,2483,62980,83942,132070,62980
19683,2481,1105,1446,2483,62980,83942,132070,62980
20050,2478,1106,1441,2480,62980,83942,132070,62980
20050,2482,1112,1422,2479,62980,83942,132070,62980
20050,2479,1108,1408,2479,62980,83942,132070,62980
20050,2478,1111,1413,2483,62980,83942,132070,62980
20050,2480,1116,1421,2483,62980,83942,132070,62980
20050,2478,1108,1422,2482,62980,83942,132070,62980
20050,2479,1099,1429,2477,62980,83942,132070,62980
19683,2474,1093,1450,2479,62980,83942,132070,62980
20050,2476,1097,1428,2483,62980,83942,132070,62980
20050,2478,1093,1434,2483,62980,83942,132070,62980
20050,2479,1078,1404,2481,62980,83942,132070,62980
20050,2477,1081,1404,2480,62980,83942,132070,62980
20050,2475,1084,1422,2479,62980,83942,132070,62980
20050,2480,1097,1455,2479,62980,83942,132070,62980
19958,2479,1083,1498,2484,62980,83942,132070,62980
20050,2481,1087,1532,2482,62980,83942,132070,62980
19958,2478,1115,1573,2482,62980,83942,132070,62980
20050,2477,1109,1588,2480,62980,83942,132070,62980
19958,2479,1115,1614,2481,62980,83942,132070,62980
20050,2481,1122,1608,2482,62980,83942,132070,62980
19958,2480,1129,1568,2478,62980,83942,132070,62980
20050,2478,1134,1562,2482,62980,83942,132070,62980
19683,2479,1139,1574,2479,62980,83942,132070,62980
20050,2479,1151,1591,2480,62980,83942,132070,62980
20050,2480,1151,1590,2481,62980,83942,132070,62980
20050,2478,1160,1599,2479,62980,83942,132070,62980
20050,2476,1146,1591,2481,62980,83942,132070,62980
20050,2477,1151,1592,2480,62980,83942,132070,62980
20050,2480,1151,1583,2480,62980,83942,132070,62980
19958,2481,1144,1592,2482,62980,83942,132070,62980
20050,2475,1130,1568,2480,62980,83942,132070,62980
19683,2477,1132,1604,2478,62980,83942,132070,62980
20050,2479,1137,1615,2478,62980,83942,132070,62980
20050,2479,1144,1615,2482,62980,83942,132070,62980
20050,2479,1132,1609,2483,62980,83942,132070,62980
20050,2476,1139,1609,2481,62980,83942,132070,62980
20050,2479,1144,1598,2480,62980,83942,132070,62980
20050,2478,1144,1609,2480,62980,83942,132070,62980
19958,2479,1139,1620,2482,62980,83942,132070,62980
20050,2478,1144,1634,2482,62980,83942,132070,62980
19958,2481,1157,1603,2482,62980,83942,132070,62980
20050,2479,1153,1582,2479,62980,83942,132070,62980
19958,2479,1143,1612,2476,62980,83942,132070,62980
20050,2479,1153,1605,2478,62980,83942,132070,62980
19714,2478,1158,1654,2480,62980,83660,131318,62980
20050,2478,931,680,2480,62980,83660,131318,62980
20050,2479,954,697,2480,62980,83660,131318,62980
20050,2477,945,683,2478,62980,83660,131318,62980
20050,2476,944,666,2479,62980,83660,131318,62980
20050,2482,938,676,2480,62980,83660,131318,62980
20050,2480,952,698,2475,62980,83660,131318,62980
19683,2476,944,698,2477,62980,83660,131318,62980
20050,2477,944,709,2479,62980,83660,131318,62980
20050,2479,943,683,2478,62980,83660,131318,62980
20050,2476,943,670,2480,62980,83660,131318,62980
20050,2477,939,653,2479,62980,83660,131318,62980
20050,2479,957,683,2480,62980,83660,131318,62980
20050,2480,956,670,2477,62980,83660,131318,62980
19958,2481,950,656,2481,62980,83660,131318,62980
20050,2479,942,662,2480,62980,83660,131318,62980
19958,2476,957,637,2481,62980,83660,131318,62980
20050,2479,958,667,2480,62980,83660,131318,62980
19683,2477,955,662,2479,62980,83660,131318,62980
20050,2476,953,659,2480,62980,83660,131318,62980
20050,2475,943,662,2480,62980,83660,131318,62980
20050,2475,949,655,2479,62980,83660,131318,62980
20050,2479,948,660,2477,62980,83660,131318,62980
20050,2477,947,671,2481,62980,83660,131318,62980
20050,2482,956,682,2479,62980,83660,131318,62980
19958,2478,956,753,2477,62980,83660,131318,62980
20050,2478,964,791,2479,62980,83660,131318,62980
19958,2476,982,818,2482,62980,83660,131318,62980
20050,2479,985,831,2479,62980,83660,131318,62980
20050,2479,994,826,2483,62980,83660,131318,62980
19683,2479,1002,831,2478,62980,83660,131318,62980
20050,2476,1006,815,2479,62980,83660,131318,62980
20050,2476,1002,793,2479,62980,83660,131318,62980
20050,2478,1007,824,2476,62980,83660,131318,62980
20050,2483,1021,844,2480,62980,83660,131318,62980
20050,2478,1023,857,2480,62980,83660,131318,62980
19958,2476,1025,826,2480,62980,83660,131318,62980
20050,2479,1028,813,2482,62980,83660,131318,62980
19958,2479,1013,824,2476,62980,83660,131318,62980
20050,2482,1013,821,2481,62980,83660,131318,62980
19958,2476,1011,824,2478,62980,83660,131318,62980
20050,2479,1022,845,2480,62980,83660,131318,62980
20050,2477,1021,852,2477,62980,83660,131318,62980
19683,2478,1021,864,2479,62980,83660,131318,62980
20050,2479,1019,862,2478,62980,83660,131318,62980
20050,2480,1025,861,2479,62980,83660,131318,62980
20050,2479,1020,837,2478,62980,83660,131318,62980
20050,2479,1034,843,2480,62980,83660,131318,62980
20050,2477,1041,842,2478,62980,83660,131318,62980
19958,2477,1041,828,2480,62980,83660,131318,62980
20050,2479,1033,815,2481,62980,83660,131318,62980
19958,2475,1035,807,2480,62980,83660,131318,62980
20050,2476,1048,815,2477,62980,83660,131318,62980
20050,2476,1049,806,2479,62980,83660,131318,62980
19683,2481,1054,795,2478,62980,83660,131318,62980
20050,2479,1043,791,2480,62980,83660,131318,62980
20050,2478,1041,777,2480,62980,83660,131318,62980
20050,2478,1041,770,2477,62980,83660,131318,62980
20050,2476,1042,764,2477,62980,83660,131318,62980
20050,2477,1034,737,2480,62980,83660,131318,62980
19958,2481,1039,736,2482,62980,83660,131318,62980
20050,2476,1043,698,2481,62980,83660,131318,62980
19958,2477,1041,722,2481,62980,83660,131318,62980
20050,2478,1046,713,2477,62980,83660,131318,62980
19958,2479,1050,675,2482,62980,83660,131318,62980
20050,2481,1049,671,2478,62980,83660,131318,62980
20050,2481,1042,644,2480,62980,83660,131318,62980
19683,2477,1050,657,2481,62980,83660,131318,62980
20050,2475,1042,640,2479,62980,83660,131318,62980
20050,2481,1042,633,2482,62980,83660,131318,62980
20050,2480,1036,629,2478,62980,83660,131318,62980
20050,2480,1042,626,2481,62980,83660,131318,62980
20050,2479,1035,612,2478,62980,83660,131318,62980
19958,2477,1028,586,2477,62980,83660,131318,62980
20050,2481,1041,581,2481,62980,83660,131318,62980
19958,2475,1033,590,2483,62980,83660,131318,62980
20050,2479,1043,570,2482,62980,83660,131318,62980
20050,2477,1042,593,2483,62980,83660,131318,62980
20050,2475,1043,614,2477,62980,83660,131318,62980
19683,2481,1041,647,2479,62980,83660,131318,62980
20050,2480,1040,673,2478,62980,83660,131318,62980
20050,2480,1037,665,2480,62980,83660,131318,62980
20050,2477,1031,630,2481,62980,83660,131318,62980
20050,2480,1026,625,2474,62980,83660,131318,62980
19958,2481,1048,601,2481,62980,83660,131318,62980
20050,2479,1043,574,2481,62980,83660,131318,62980
19958,2481,1042,541,2479,62980,83660,131318,62980
20050,2477,1034,508,2480,62980,83660,131318,62980
19958,2477,1037,480,2480,62980,83660,131318,62980
20050,2477,1047,483,2478,62980,83660,131318,62980
20050,2479,1050,486,2480,62980,83660,131318,62980
20050,2477,1057,483,2481,62980,83660,131318,62980
19683,2477,1048,492,2479,62980,83660,131318,62980
20050,2479,1040,470,2481,62980,83660,131318,62980
20050,2480,1029,436,2479,62980,83660,131318,62980
20050,2477,1015,438,2479,62980,83660,131318,62980
20050,2479,1008,429,2477,62980,83660,131318,62980
19958,2478,1027,469,2478,62980,83660,131318,62980
20050,2479,1036,467,2477,62980,83660,131318,62980
19958,2474,1029,469,2481,62980,83660,131318,62980
20050,2477,1016,446,2483,62980,83660,131318,62980
20050,2479,1015,430,2478,62980,83660,131318,62980
20050,2481,1029,460,2481,62980,83660,131318,62980
19683,2478,1015,418,2479,62980,83660,131318,62980
20050,2482,985,364,2480,62980,83660,131318,62980
20050,2481,961,359,2478,62980,83660,131318,62980
20050,2479,970,369,2483,62980,83660,131318,62980
20050,2478,983,413,2479,62980,83660,131318,62980
19958,2480,1005,410,2475,62980,83660,131318,62980
20050,2479,989,384,2476,62980,83660,131318,62980
19958,2477,980,429,2481,62980,83660,131318,62980
20050,2480,987,424,2477,62980,83660,131318,62980
19958,2476,1004,427,2478,62980,83660,131318,62980
20050,2477,1001,412,2482,62980,83660,131318,62980
20050,2482,1000,392,2482,62980,83660,131318,62980
20050,2478,1000,431,2481,62980,83660,131318,62980
19683,2479,996,411,2481,62980,83660,131318,62980
20050,2481,993,424,2480,62980,83660,131318,62980
20050,2479,987,414,2481,62980,83660,131318,62980
20050,2481,988,410,2479,62980,83660,131318,62980
20050,2481,979,407,2479,62980,83660,131318,62980
19958,2483,989,398,2483,62980,83660,131318,62980
20050,2479,990,405,2479,62980,83660,131318,62980
19958,2477,983,415,2481,62980,83660,131318,62980
20050,2482,993,404,2480,62980,83660,131318,62980
20050,2475,991,409,2482,62980,83660,131318,62980
20050,2480,995,431,2480,62980,83660,131318,62980
20050,2478,1002,450,2481,62980,83660,131318,62980
19683,2478,1008,489,2479,62980,83660,131318,62980
20050,2480,1011,530,2480,62980,83660,131318,62980
20050,2481,1009,573,2481,62980,83660,131318,62980
20050,2481,1016,574,2479,62980,83660,131318,62980
19958,2481,1031,562,2481,62980,83660,131318,62980
20050,2478,1026,527,2479,62980,83660,131318,62980
19958,2485,1029,528,2482,62980,83660,131318,62980
20050,2480,1033,519,2479,62980,83660,131318,62980
19958,2479,1037,498,2481,62980,83660,131318,62980
20050,2477,1039,527,2483,62980,83660,131318,62980
19958,2479,1051,528,2478,62980,83660,131318,62980
20050,2478,1053,533,2483,62980,83660,131318,62980
20050,2480,1049,532,2479,62980,83660,131318,62980
20050,2480,1041,511,2482,62980,83660,131318,62980
20050,2477,1041,523,2480,62980,83660,131318,62980
19683,2476,1044,531,2480,62980,83660,131318,62980
20050,2479,1043,522,2480,62980,83660,131318,62980
20050,2477,1039,540,2480,62980,83660,131318,62980
20050,2480,1044,539,2481,62980,83660,131318,62980
19958,2476,1035,566,2481,62980,83660,131318,62980
20050,2481,1035,553,2478,62980,83660,131318,62980
19958,2480,1041,541,2483,62980,83660,131318,62980
20080,2479,1040,562,2482,62980,83472,131412,62980
20050,2482,811,794,2481,62980,83472,131412,62980
20050,2478,815,817,2477,62980,83472,131412,62980
19683,2477,805,797,2479,62980,83472,131412,62980
20050,2480,806,801,2478,62980,83472,131412,62980
20050,2480,804,809,2479,62980,83472,131412,62980
20050,2481,817,783,2479,62980,83472,131412,62980
20050,2476,804,772,2478,62980,83472,131412,62980
20050,2479,797,761,2479,62980,83472,131412,62980
20050,2481,799,763,2480,62980,83472,131412,62980
20050,2480,805,801,2481,62980,83472,131412,62980
19683,2479,803,794,2480,62980,83472,131412,62980
20050,2475,805,812,2478,62980,83472,131412,62980
20050,2478,809,811,2479,62980,83472,131412,62980
20050,2479,815,811,2478,62980,83472,131412,62980
19958,2477,822,802,2482,62980,83472,131412,62980
20050,2475,821,784,2478,62980,83472,131412,62980
20050,2477,816,803,2476,62980,83472,131412,62980
20050,2477,816,801,2479,62980,83472,131412,62980
20050,2479,817,802,2479,62980,83472,131412,62980
19683,2482,821,822,2482,62980,83472,131412,62980
20050,2480,813,780,2480,62980,83472,131412,62980
20050,2479,801,774,2476,62980,83472,131412,62980
20050,2477,798,763,2478,62980,83472,131412,62980
19958,2479,803,790,2480,62980,83472,131412,62980
20050,2478,801,789,2480,62980,83472,131412,62980
19958,2479,798,762,2479,62980,83472,131412,62980
20050,2481,789,746,2482,62980,83472,131412,62980
19958,2482,783,746,2478,62980,83472,131412,62980
20050,2481,791,798,2482,62980,83472,131412,62980
20050,2477,801,862,2479,62980,83472,131412,62980
20050,2476,801,878,2481,62980,83472,131412,62980
20050,2476,804,914,2479,62980,83472,131412,62980
20050,2479,824,936,2476,62980,83472,131412,62980
19683,2480,858,970,2479,62980,83472,131412,62980
20050,2477,871,977,2477,62980,83472,131412,62980
20050,2473,868,943,2479,62980,83472,131412,62980
19958,2477,859,938,2478,62980,83472,131412,62980
20050,2476,872,955,2474,62980,83472,131412,62980
19958,2477,878,944,2481,62980,83472,131412,62980
20050,2477,889,958,2481,62980,83472,131412,62980
20050,2475,898,948,2477,62980,83472,131412,62980
20050,2476,883,964,2481,62980,83472,131412,62980
20050,2482,867,938,2479,62980,83472,131412,62980
20050,2480,850,932,2480,62980,83472,131412,62980
19683,2479,831,915,2480,62980,83472,131412,62980
20050,2480,825,921,2480,62980,83472,131412,62980
20050,2478,829,921,2482,62980,83472,131412,62980
19958,2479,832,924,2477,62980,83472,131412,62980
20050,2478,826,919,2478,62980,83472,131412,62980
19958,2481,828,922,2479,62980,83472,131412,62980
20050,2480,837,927,2481,62980,83472,131412,62980
19958,2477,832,922,2483,62980,83472,131412,62980
20050,2482,834,911,2476,62980,83472,131412,62980
20050,2479,834,908,2481,62980,83472,131412,62980
20050,2477,831,910,2484,62980,83472,131412,62980
20050,2480,843,909,2479,62980,83472,131412,62980
20050,2479,849,913,2480,62980,83472,131412,62980
19683,2481,849,879,2476,62980,83472,131412,62980
20050,2475,841,875,2479,62980,83472,131412,62980
20050,2479,837,871,2480,62980,83472,131412,62980
19958,2480,828,863,2481,62980,83472,131412,62980
20050,2478,839,879,2479,62980,83472,131412,62980
19958,2480,845,833,2480,62980,83472,131412,62980
20050,2477,849,848,2480,62980,83472,131412,62980
20050,2478,857,856,2484,62980,83472,131412,62980
20050,2480,856,860,2480,62980,83472,131412,62980
20050,2477,847,848,2480,62980,83472,131412,62980
20050,2482,842,839,2479,62980,83472,131412,62980
19683,2480,847,828,2478,62980,83472,131412,62980
20050,2483,843,842,2482,62980,83472,131412,62980
20050,2477,856,812,2480,62980,83472,131412,62980
19958,2480,857,817,2479,62980,83472,131412,62980
20050,2479,863,816,2479,62980,83472,131412,62980
19958,2479,856,788,2481,62980,83472,131412,62980
20050,2479,845,797,2480,62980,83472,131412,62980
19958,2477,843,813,2481,62980,83472,131412,62980
20050,2480,836,843,2477,62980,83472,131412,62980
20050,2478,845,820,2480,62980,83472,131412,62980
20050,2481,843,822,2483,62980,83472,131412,62980
20050,2481,840,789,2482,62980,83472,131412,62980
20050,2480,832,767,2478,62980,83472,131412,62980
20050,2477,839,827,2476,62980,83472,131412,62980
19683,2480,854,901,2483,62980,83472,131412,62980
20050,2480,859,953,2480,62980,83472,131412,62980
19958,2480,855,995,2481,62980,83472,131412,62980
20050,2477,868,1023,2482,62980,83472,131412,62980
19958,2477,870,1008,2479,62980,83472,131412,62980
20050,2475,875,988,2479,62980,83472,131412,62980
20050,2480,872,971,2481,62980,83472,131412,62980
20050,2481,867,961,2481,62980,83472,131412,62980
20050,2481,885,972,2482,62980,83472,131412,62980
20050,2477,882,990,2478,62980,83472,131412,62980
20050,2479,896,963,2483,62980,83472,131412,62980
19683,2481,891,967,2484,62980,83472,131412,62980
20050,2478,895,937,2479,62980,83472,131412,62980
19958,2480,887,939,2484,62980,83472,131412,62980
20050,2476,889,963,2481,62980,83472,131412,62980
19958,2481,883,945,2480,62980,83472,131412,62980
20050,2480,889,968,2480,62980,83472,131412,62980
19958,2480,880,968,2479,62980,83472,131412,62980
20050,2479,876,966,2479,62980,83472,131412,62980
20050,2478,872,984,2480,62980,83472,131412,62980
20050,2480,870,978,2476,62980,83472,131412,62980
20050,2482,865,970,2481,62980,83472,131412,62980
20050,2482,862,945,2480,62980,83472,131412,62980
20050,2479,868,923,2481,62980,83472,131412,62980
19683,2481,852,908,2481,62980,83472,131412,62980
20050,2479,840,849,2477,62980,83472,131412,62980
19958,2478,815,871,2481,62980,83472,131412,62980
20050,2478,822,869,2481,62980,83472,131412,62980
19958,2479,835,859,2481,62980,83472,131412,62980
20050,2478,835,867,2481,62980,83472,131412,62980
20050,2482,836,846,2480,62980,83472,131412,62980
20050,2481,830,853,2483,62980,83472,131412,62980
20050,2479,829,864,2483,62980,83472,131412,62980
20050,2484,827,859,2479,62980,83472,131412,62980
20050,2474,831,874,2478,62980,83472,131412,62980
19683,2480,835,867,2479,62980,83472,131412,62980
20050,2479,835,856,2479,62980,83472,131412,62980
19958,2480,830,853,2480,62980,83472,131412,62980
20050,2479,839,855,2477,62980,83472,131412,62980
19958,2476,825,845,2479,62980,83472,131412,62980
20050,2476,821,851,2481,62980,83472,131412,62980
19958,2479,826,833,2481,62980,83472,131412,62980
20050,2481,821,828,2478,62980,83472,131412,62980
19958,2477,818,842,2479,62980,83472,131412,62980
20050,2472,815,825,2479,62980,83472,131412,62980
20050,2478,815,780,2480,62980,83472,131412,62980
20050,2478,808,770,2479,62980,83472,131412,62980
20050,2479,812,829,2480,62980,83472,131412,62980
20050,2477,824,849,2481,62980,83472,131412,62980
20050,2479,823,903,2479,62980,83472,131412,62980
20050,2480,820,901,2481,62980,83472,131412,62980
19683,2479,829,934,2481,62980,83472,131412,62980
19958,2481,840,917,2484,62980,83472,131412,62980
20050,2479,849,897,2483,62980,83472,131412,62980
20050,2478,844,885,2477,62980,83472,131412,62980
20050,2482,859,893,2477,62980,83472,131412,62980
20050,2481,858,884,2481,62980,83472,131412,62980
20050,2480,862,900,2480,62980,83472,131412,62980
20050,2479,862,883,2482,62980,83472,131412,62980
20050,2479,853,884,2480,62980,83472,131412,62980
19683,2480,849,844,2480,62980,83472,131412,62980
20324,2481,839,851,2480,62980,83472,131412,62980
19683,2481,830,847,2479,62980,83472,131412,62980
20324,2478,823,866,2483,62980,83472,131412,62980
19683,2479,821,909,2480,62980,83472,131412,62980
20324,2481,832,906,2479,62980,83472,131412,62980
19683,2480,825,903,2481,62980,83472,131412,62980
20080,2483,821,887,2479,62980,83331,131177,62980
20050,2481,818,634,2477,62980,83331,131177,62980
20050,2480,804,610,2478,62980,83331,131177,62980
20050,2480,806,627,2482,62980,83331,131177,62980
20050,2477,816,627,2481,62980,83331,131177,62980
20050,2481,817,609,2480,62980,83331,131177,62980
19683,2477,822,613,2483,62980,83331,131177,62980
20050,2479,827,607,2479,62980,83331,131177,62980
20050,2480,831,602,2480,62980,83331,131177,62980
20050,2479,822,639,2481,62980,83331,131177,62980
20050,2481,822,650,2480,62980,83331,131177,62980
20050,2480,825,681,2482,62980,83331,131177,62980
20050,2479,824,679,2483,62980,83331,131177,62980
19683,2483,822,679,2481,62980,83331,131177,62980
20324,2481,830,677,2486,62980,83331,131177,62980
19683,2481,831,691,2483,62980,83331,131177,62980
20324,2477,827,696,2482,62980,83331,131177,62980
19683,2479,826,676,2480,62980,83331,131177,62980
20050,2482,821,680,2482,62980,83331,131177,62980
20050,2481,825,656,2482,62980,83331,131177,62980
20050,2479,828,649,2484,62980,83331,131177,62980
20050,2479,824,641,2482,62980,83331,131177,62980
20050,2479,824,648,2481,62980,83331,131177,62980
20050,2482,823,647,2483,62980,83331,131177,62980
19683,2480,814,650,2477,62980,83331,131177,62980
20324,2479,825,640,2483,62980,83331,131177,62980
19683,2478,833,655,2482,62980,83331,131177,62980
20324,2477,833,661,2481,62980,83331,131177,62980
19683,2478,831,669,2479,62980,83331,131177,62980
20050,2478,821,723,2477,62980,83331,131177,62980
20050,2476,827,763,2479,62980,83331,131177,62980
20050,2476,851,823,2480,62980,83331,131177,62980
20050,2475,869,869,2479,62980,83331,131177,62980
20050,2478,893,918,2480,62980,83331,131177,62980
20050,2480,895,928,2478,62980,83331,131177,62980
20050,2477,903,964,2482,62980,83331,131177,62980
19683,2475,913,959,2481,62980,83331,131177,62980
20050,2479,921,979,2475,62980,83331,131177,62980
20050,2480,928,976,2479,62980,83331,131177,62980
20050,2476,935,1004,2480,62980,83331,131177,62980
20050,2479,942,1009,2481,62980,83331,131177,62980
20050,2478,960,1044,2481,62980,83331,131177,62980
20050,2479,953,1034,2480,62980,83331,131177,62980
19683,2477,951,1047,2478,62980,83331,131177,62980
20050,2478,937,1066,2479,62980,83331,131177,62980
20050,2476,950,1082,2480,62980,83331,131177,62980
20050,2476,949,1106,2477,62980,83331,131177,62980
20050,2477,945,1113,2480,62980,83331,131177,62980
20050,2482,948,1104,2481,62980,83331,131177,62980
20050,2480,954,1148,2484,62980,83331,131177,62980
20050,2480,969,1149,2479,62980,83331,131177,62980
19683,2479,969,1128,2481,62980,83331,131177,62980
20050,2477,955,1116,2480,62980,83331,131177,62980
20050,2479,959,1120,2482,62980,83331,131177,62980
20050,2477,951,1129,2480,62980,83331,131177,62980
20050,2479,963,1130,2481,62980,83331,131177,62980
20050,2482,959,1123,2480,62980,83331,131177,62980
20050,2478,951,1088,2481,62980,83331,131177,62980
19683,2480,957,1074,2477,62980,83331,131177,62980
20050,2479,959,1057,2482,62980,83331,131177,62980
20050,2483,962,1053,2482,62980,83331,131177,62980
20050,2479,962,1056,2478,62980,83331,131177,62980
20050,2480,951,1079,2481,62980,83331,131177,62980
20050,2480,959,1081,2478,62980,83331,131177,62980
20050,2481,958,1091,2483,62980,83331,131177,62980
20050,2480,950,1059,2481,62980,83331,131177,62980
19683,2479,952,1077,2479,62980,83331,131177,62980
20050,2480,967,1088,2476,62980,83331,131177,62980
20050,2479,973,1081,2480,62980,83331,131177,62980
20050,2477,963,1073,2478,62980,83331,131177,62980
20050,2479,970,1080,2480,62980,83331,131177,62980
20050,2479,971,1085,2478,62980,83331,131177,62980
20050,2477,972,1097,2479,62980,83331,131177,62980
19683,2478,966,1054,2480,62980,83331,131177,62980
20050,2478,956,1063,2481,62980,83331,131177,62980
20050,2477,960,1040,2483,62980,83331,131177,62980
20050,2478,967,1017,2479,62980,83331,131177,62980
20050,2478,955,970,2477,62980,83331,131177,62980
20050,2478,961,988,2479,62980,83331,131177,62980
20050,2482,949,1006,2483,62980,83331,131177,62980
20050,2479,946,1035,2480,62980,83331,131177,62980
19683,2477,951,1100,2482,62980,83331,131177,62980
20050,2477,971,1160,2483,62980,83331,131177,62980
20050,2482,978,1156,2479,62980,83331,131177,62980
20050,2480,983,1187,2479,62980,83331,131177,62980
20050,2478,981,1159,2480,62980,83331,131177,62980
20050,2481,997,1180,2480,62980,83331,131177,62980
20050,2479,998,1150,2479,62980,83331,131177,62980
19683,2481,1010,1166,2481,62980,83331,131177,62980
20050,2481,1005,1185,2478,62980,83331,131177,62980
20050,2479,1027,1211,2477,62980,83331,131177,62980
20050,2479,1030,1226,2483,62980,83331,131177,62980
20050,2479,1038,1240,2480,62980,83331,131177,62980
20050,2478,1028,1225,2484,62980,83331,131177,62980
20050,2481,1036,1255,2484,62980,83331,131177,62980
20050,2480,1040,1242,2479,62980,83331,131177,62980
19683,2479,1055,1274,2481,62980,83331,131177,62980
20050,2476,1058,1309,2478,62980,83331,131177,62980
20050,2483,1068,1338,2480,62980,83331,131177,62980
20050,2479,1058,1348,2479,62980,83331,131177,62980
20050,2479,1075,1360,2479,62980,83331,131177,62980
20050,2478,1078,1362,2482,62980,83331,131177,62980
20050,2477,1085,1347,2480,62980,83331,131177,62980
20050,2480,1079,1323,2481,62980,83331,131177,62980
19683,2480,1082,1348,2481,62980,83331,131177,62980
20050,2479,1089,1347,2479,62980,83331,131177,62980
20050,2477,1092,1353,2480,62980,83331,131177,62980
20050,2480,1092,1369,2482,62980,83331,131177,62980
20050,2481,1092,1347,2478,62980,83331,131177,62980
20050,2482,1084,1350,2482,62980,83331,131177,62980
20050,2480,1095,1336,2480,62980,83331,131177,62980
19683,2479,1102,1360,2482,62980,83331,131177,62980
20050,2477,1119,1365,2477,62980,83331,131177,62980
20050,2483,1130,1382,2482,62980,83331,131177,62980
20050,2478,1124,1383,2479,62980,83331,131177,62980
20050,2478,1125,1383,2481,62980,83331,131177,62980
20050,2478,1123,1365,2477,62980,83331,131177,62980
20050,2478,1117,1334,2483,62980,83331,131177,62980
20050,2479,1127,1336,2481,62980,83331,131177,62980
19683,2481,1129,1350,2481,62980,83331,131177,62980
20050,2479,1142,1312,2480,62980,83331,131177,62980
20050,2481,1143,1310,2481,62980,83331,131177,62980
20050,2477,1138,1284,2476,62980,83331,131177,62980
20050,2481,1146,1294,2481,62980,83331,131177,62980
20050,2482,1138,1276,2483,62980,83331,131177,62980
20050,2480,1152,1280,2484,62980,83331,131177,62980
19683,2479,1153,1265,2481,62980,83331,131177,62980
20050,2479,1159,1275,2478,62980,83331,131177,62980
20050,2483,1151,1257,2481,62980,83331,131177,62980
20050,2480,1145,1293,2481,62980,83331,131177,62980
20050,2480,1148,1317,2478,62980,83331,131177,62980
20050,2479,1160,1353,2481,62980,83331,131177,62980
20050,2481,1154,1360,2480,62980,83331,131177,62980
20050,2480,1150,1356,2479,62980,83331,131177,62980
19683,2480,1138,1339,2484,62980,83331,131177,62980
20050,2479,1159,1358,2480,62980,83331,131177,62980
20050,2479,1172,1348,2480,62980,83331,131177,62980
20050,2479,1178,1307,2481,62980,83331,131177,62980
20050,2479,1173,1277,2483,62980,83331,131177,62980
20050,2481,1182,1289,2482,62980,83331,131177,62980
20050,2480,1184,1284,2482,62980,83331,131177,62980
19683,2476,1185,1297,2481,62980,83331,131177,62980
20050,2481,1175,1272,2477,62980,83331,131177,62980
20050,2482,1170,1281,2481,62980,83331,131177,62980
20050,2481,1162,1273,2482,62980,83331,131177,62980
20050,2478,1168,1279,2480,62980,83331,131177,62980
20050,2480,1162,1266,2483,62980,83331,131177,62980
20050,2483,1154,1221,2480,62980,83331,131177,62980
20050,2485,1144,1205,2479,62980,83331,131177,62980
19683,2483,1146,1222,2479,62980,83331,131177,62980
20080,2479,1153,1228,2482,62980,83143,130754,62980
20050,2479,915,733,2482,62980,83143,130754,62980
20050,2483,902,721,2482,62980,83143,130754,62980
20050,2483,896,711,2481,62980,83143,130754,62980
20050,2481,899,710,2481,62980,83143,130754,62980
20050,2478,900,688,2479,62980,83143,130754,62980
19683,2478,901,705,2482,62980,83143,130754,62980
20050,2479,899,677,2480,62980,83143,130754,62980
20050,2478,905,686,2483,62980,83143,130754,62980
20050,2479,911,700,2484,62980,83143,130754,62980
20050,2478,915,724,2480,62980,83143,130754,62980
20050,2479,908,710,2479,62980,83143,130754,62980
20050,2481,912,717,2479,62980,83143,130754,62980
19683,2479,921,710,2482,62980,83143,130754,62980
20050,2482,916,723,2479,62980,83143,130754,62980
20050,2480,921,694,2482,62980,83143,130754,62980
20050,2479,922,677,2479,62980,83143,130754,62980
20050,2481,907,650,2478,62980,83143,130754,62980
20050,2482,910,639,2481,62980,83143,130754,62980
20050,2479,903,652,2482,62980,83143,130754,62980
20050,2478,910,636,2482,62980,83143,130754,62980
19683,2478,896,611,2476,62980,83143,130754,62980
20050,2478,894,620,2482,62980,83143,130754,62980
20050,2475,898,640,2481,62980,83143,130754,62980
20050,2482,900,693,2480,62980,83143,130754,62980
20050,2480,898,697,2481,62980,83143,130754,62980
20050,2475,901,722,2479,62980,83143,130754,62980
20050,2481,897,726,2478,62980,83143,130754,62980
19683,2478,906,742,2481,62980,83143,130754,62980
20050,2480,894,732,2479,62980,83143,130754,62980
20050,2478,902,737,2482,62980,83143,130754,62980
20050,2479,908,731,2479,62980,83143,130754,62980
20050,2479,919,747,2480,62980,83143,130754,62980
20050,2478,927,738,2481,62980,83143,130754,62980
20050,2477,932,745,2479,62980,83143,130754,62980
20050,2480,925,735,2484,62980,83143,130754,62980
19683,2476,927,768,2481,62980,83143,130754,62980
20050,2480,920,770,2480,62980,83143,130754,62980
20050,2480,931,779,2481,62980,83143,130754,62980
20050,2478,922,793,2479,62980,83143,130754,62980
20050,2477,930,793,2477,62980,83143,130754,62980
20050,2477,924,791,2482,62980,83143,130754,62980
20050,2484,929,783,2480,62980,83143,130754,62980
19683,2478,936,798,2481,62980,83143,130754,62980
20050,2480,932,827,2481,62980,83143,130754,62980
20050,2479,935,835,2481,62980,83143,130754,62980
20050,2476,935,854,2479,62980,83143,130754,62980
20050,2480,927,856,2480,62980,83143,130754,62980
20050,2480,939,865,2482,62980,83143,130754,62980
20050,2480,935,874,2482,62980,83143,130754,62980
20050,2477,953,875,2482,62980,83143,130754,62980
19683,2476,946,877,2481,62980,83143,130754,62980
20050,2478,948,878,2477,62980,83143,130754,62980
20050,2481,963,915,2483,62980,83143,130754,62980
20050,2479,970,929,2480,62980,83143,130754,62980
20050,2481,972,948,2481,62980,83143,130754,62980
20050,2476,971,950,2482,62980,83143,130754,62980
20050,2479,977,945,2482,62980,83143,130754,62980
19683,2479,991,959,2482,62980,83143,130754,62980
20050,2479,999,992,2480,62980,83143,130754,62980
20050,2475,1006,974,2478,62980,83143,130754,62980
20050,2479,998,990,2480,62980,83143,130754,62980
20050,2478,997,966,2480,62980,83143,130754,62980
20050,2479,990,990,2483,62980,83143,130754,62980
20050,2482,986,1000,2483,62980,83143,130754,62980
20050,2478,995,1013,2482,62980,83143,130754,62980
19683,2476,991,1001,2475,62980,83143,130754,62980
20050,2477,986,989,2482,62980,83143,130754,62980
20050,2480,985,979,2482,62980,83143,130754,62980
20050,2480,986,984,2480,62980,83143,130754,62980
20050,2478,994,999,2479,62980,83143,130754,62980
20050,2478,987,1039,2482,62980,83143,130754,62980
20050,2479,979,1057,2480,62980,83143,130754,62980
20050,2479,979,1116,2483,62980,83143,130754,62980
19683,2480,981,1138,2480,62980,83143,130754,62980
20050,2481,1009,1182,2481,62980,83143,130754,62980
20050,2476,1020,1207,2479,62980,83143,130754,62980
20050,2474,1026,1203,2478,62980,83143,130754,62980
20050,2479,1027,1196,2480,62980,83143,130754,62980
20050,2480,1045,1222,2481,62980,83143,130754,62980
20050,2479,1053,1232,2479,62980,83143,130754,62980
19683,2478,1065,1274,2479,62980,83143,130754,62980
20050,2480,1067,1280,2480,62980,83143,130754,62980
20050,2480,1075,1295,2477,62980,83143,130754,62980
20050,2478,1075,1304,2478,62980,83143,130754,62980
20050,2480,1082,1305,2484,62980,83143,130754,62980
20050,2478,1090,1317,2481,62980,83143,130754,62980
20050,2480,1103,1345,2480,62980,83143,130754,62980
20050,2480,1095,1347,2480,62980,83143,130754,62980
19683,2480,1096,1370,2483,62980,83143,130754,62980
20050,2480,1090,1359,2476,62980,83143,130754,62980
20050,2479,1082,1367,2479,62980,83143,130754,62980
20050,2478,1083,1380,2481,62980,83143,130754,62980
20050,2478,1101,1410,2482,62980,83143,130754,62980
20050,2481,1108,1426,2481,62980,83143,130754,62980
20050,2479,1110,1429,2478,62980,83143,130754,62980
19683,2478,1109,1443,2475,62980,83143,130754,62980
20050,2480,1107,1434,2478,62980,83143,130754,62980
20050,2479,1105,1455,2483,62980,83143,130754,62980
20050,2482,1113,1465,2480,62980,83143,130754,62980
20050,2479,1113,1463,2477,62980,83143,130754,62980
20050,2478,1116,1470,2477,62980,83143,130754,62980
20050,2478,1120,1460,2483,62980,83143,130754,62980
20050,2479,1134,1460,2477,62980,83143,130754,62980
19683,2480,1145,1477,2480,62980,83143,130754,62980
20050,2481,1143,1473,2482,62980,83143,130754,62980
20050,2477,1144,1500,2478,62980,83143,130754,62980
20050,2476,1153,1501,2480,62980,83143,130754,62980
20050,2477,1145,1506,2480,62980,83143,130754,62980
20050,2478,1148,1514,2484,62980,83143,130754,62980
20050,2480,1144,1492,2480,62980,83143,130754,62980
19683,2478,1139,1467,2479,62980,83143,130754,62980
20050,2481,1132,1474,2476,62980,83143,130754,62980
20050,2479,1143,1458,2483,62980,83143,130754,62980
20050,2478,1138,1455,2483,62980,83143,130754,62980
20050,2480,1138,1461,2480,62980,83143,130754,62980
20050,2478,1132,1481,2482,62980,83143,130754,62980
20050,2482,1126,1468,2478,62980,83143,130754,62980
20050,2480,1117,1467,2484,62980,83143,130754,62980
19683,2478,1110,1442,2483,62980,83143,130754,62980
20050,2478,1120,1465,2481,62980,83143,130754,62980
20050,2479,1126,1474,2483,62980,83143,130754,62980
20050,2479,1139,1499,2480,62980,83143,130754,62980
20050,2480,1141,1475,2485,62980,83143,130754,62980
20050,2480,1139,1476,2483,62980,83143,130754,62980
20050,2480,1128,1462,2481,62980,83143,130754,62980
19683,2479,1129,1535,2480,62980,83143,130754,62980
20050,2477,1141,1568,2480,62980,83143,130754,62980
20050,2479,1158,1625,2484,62980,83143,130754,62980
20050,2477,1166,1654,2481,62980,83143,130754,62980
20050,2480,1185,1687,2482,62980,83143,130754,62980
20050,2475,1186,1700,2482,62980,83143,130754,62980
20050,2482,1207,1716,2479,62980,83143,130754,62980
20050,2481,1198,1695,2481,62980,83143,130754,62980
19683,2479,1202,1685,2482,62980,83143,130754,62980
20050,2479,1208,1679,2482,62980,83143,130754,62980
20050,2477,1221,1710,2481,62980,83143,130754,62980
20050,2480,1236,1723,2480,62980,83143,130754,62980
20050,2481,1240,1736,2480,62980,83143,130754,62980
20050,2483,1237,1730,2483,62980,83143,130754,62980
20050,2484,1248,1739,2481,62980,83143,130754,62980
19683,2479,1242,1755,2481,62980,83143,130754,62980
20050,2479,1247,1754,2482,62980,83143,130754,62980
20050,2482,1236,1779,2479,62980,83143,130754,62980
20050,2480,1233,1778,2480,62980,83143,130754,62980
20050,2479,1230,1785,2483,62980,83143,130754,62980
20050,2481,1227,1791,2482,62980,83143,130754,62980
20050,2484,1228,1749,2479,62980,83143,130754,62980
20050,2480,1229,1759,2483,62980,83143,130754,62980
19683,2480,1237,1772,2480,62980,83143,130754,62980
20080,2477,1242,1759,2479,62980,82861,130237,62980
20050,2479,762,1050,2483,62980,82861,130237,62980
20050,2478,752,1019,2479,62980,82861,130237,62980
20050,2476,744,1033,2483,62980,82861,130237,62980
20050,2478,759,1050,2480,62980,82861,130237,62980
20050,2480,765,1043,2483,62980,82861,130237,62980
19683,2477,768,1022,2480,62980,82861,130237,62980
20050,2480,765,1006,2479,62980,82861,130237,62980
20050,2481,771,997,2479,62980,82861,130237,62980
20050,2479,780,1017,2482,62980,82861,130237,62980
20050,2477,790,1019,2481,62980,82861,130237,62980
20050,2478,790,1021,2481,62980,82861,130237,62980
20050,2476,783,985,2480,62980,82861,130237,62980
19683,2478,775,1005,2479,62980,82861,130237,62980
20050,2481,786,991,2483,62980,82861,130237,62980
20050,2478,801,991,2480,62980,82861,130237,62980
20050,2476,797,965,2481,62980,82861,130237,62980
20050,2479,794,956,2479,62980,82861,130237,62980
20050,2479,790,947,2481,62980,82861,130237,62980
20050,2481,797,948,2482,62980,82861,130237,62980
20050,2479,802,933,2480,62980,82861,130237,62980
19683,2481,802,945,2477,62980,82861,130237,62980
20050,2483,796,909,2482,62980,82861,130237,62980
20050,2481,797,917,2482,62980,82861,130237,62980
20050,2480,795,888,2483,62980,82861,130237,62980
20050,2482,800,899,2482,62980,82861,130237,62980
20050,2480,801,874,2480,62980,82861,130237,62980
20050,2485,803,856,2480,62980,82861,130237,62980
19683,2477,805,855,2482,62980,82861,130237,62980
20050,2479,814,860,2481,62980,82861,130237,62980
20050,2480,807,842,2482,62980,82861,130237,62980
20050,2478,802,864,2479,62980,82861,130237,62980
20050,2478,806,897,2480,62980,82861,130237,62980
20050,2478,807,912,2480,62980,82861,130237,62980
20050,2479,804,900,2482,62980,82861,130237,62980
20050,2479,814,902,2480,62980,82861,130237,62980
19683,2479,809,870,2479,62980,82861,130237,62980
20050,2480,816,849,2478,62980,82861,130237,62980
20050,2478,818,832,2486,62980,82861,130237,62980
20050,2483,832,824,2484,62980,82861,130237,62980
20050,2478,838,808,2482,62980,82861,130237,62980
20050,2481,843,785,2482,62980,82861,130237,62980
20050,2482,834,741,2483,62980,82861,130237,62980
20050,2483,834,761,2482,62980,82861,130237,62980
19683,2480,831,763,2484,62980,82861,130237,62980
20050,2481,839,791,2481,62980,82861,130237,62980
20050,2478,828,770,2479,62980,82861,130237,62980
20050,2477,828,762,2483,62980,82861,130237,62980
20050,2480,813,757,2484,62980,82861,130237,62980
20050,2482,810,728,2483,62980,82861,130237,62980
20050,2480,799,701,2484,62980,82861,130237,62980
19683,2482,795,686,2481,62980,82861,130237,62980
20050,2483,801,675,2479,62980,82861,130237,62980
20050,2479,799,676,2481,62980,82861,130237,62980
20050,2482,803,669,2482,62980,82861,130237,62980
20050,2483,799,656,2482,62980,82861,130237,62980
20050,2482,784,650,2485,62980,82861,130237,62980
20050,2480,788,639,2484,62980,82861,130237,62980
20050,2483,776,629,2486,62980,82861,130237,62980
19683,2480,777,605,2484,62980,82861,130237,62980
20050,2479,785,633,2483,62980,82861,130237,62980
20050,2479,785,631,2481,62980,82861,130237,62980
20050,2480,790,644,2480,62980,82861,130237,62980
20050,2480,786,645,2485,62980,82861,130237,62980
20050,2482,785,643,2481,62980,82861,130237,62980
20050,2481,779,655,2482,62980,82861,130237,62980
19683,2480,785,686,2481,62980,82861,130237,62980
20050,2481,793,665,2481,62980,82861,130237,62980
20050,2485,799,685,2478,62980,82861,130237,62980
20050,2479,796,648,2477,62980,82861,130237,62980
20050,2479,800,676,2479,62980,82861,130237,62980
20050,2481,802,654,2481,62980,82861,130237,62980
20050,2483,777,599,2480,62980,82861,130237,62980
20050,2483,750,603,2483,62980,82861,130237,62980
19683,2479,770,638,2480,62980,82861,130237,62980
20050,2477,786,634,2483,62980,82861,130237,62980
20050,2477,788,632,2478,62980,82861,130237,62980
20050,2484,780,592,2483,62980,82861,130237,62980
20050,2481,777,618,2482,62980,82861,130237,62980
20050,2483,785,643,2483,62980,82861,130237,62980
20050,2478,790,683,2484,62980,82861,130237,62980
19683,2481,772,719,2481,62980,82861,130237,62980
20050,2480,784,752,2484,62980,82861,130237,62980
20050,2480,787,793,2484,62980,82861,130237,62980
20050,2480,809,817,2481,62980,82861,130237,62980
20050,2479,808,797,2481,62980,82861,130237,62980
20050,2481,811,772,2481,62980,82861,130237,62980
20050,2483,811,751,2482,62980,82861,130237,62980
20050,2484,822,784,2481,62980,82861,130237,62980
19683,2478,832,793,2477,62980,82861,130237,62980
20050,2481,839,811,2481,62980,82861,130237,62980
20050,2482,824,804,2479,62980,82861,130237,62980
20050,2478,831,809,2480,62980,82861,130237,62980
20050,2481,818,825,2481,62980,82861,130237,62980
20050,2484,826,818,2486,62980,82861,130237,62980
20050,2478,818,828,2480,62980,82861,130237,62980
19683,2478,829,870,2480,62980,82861,130237,62980
20050,2478,830,855,2480,62980,82861,130237,62980
20050,2480,821,879,2479,62980,82861,130237,62980
20050,2482,813,867,2481,62980,82861,130237,62980
20050,2479,816,865,2482,62980,82861,130237,62980
20050,2478,811,877,2480,62980,82861,130237,62980
20050,2484,814,840,2483,62980,82861,130237,62980
20050,2479,807,839,2482,62980,82861,130237,62980
19683,2481,814,835,2481,62980,82861,130237,62980
20050,2480,827,846,2482,62980,82861,130237,62980
20050,2478,821,817,2482,62980,82861,130237,62980
20050,2485,809,815,2479,62980,82861,130237,62980
20050,2484,811,814,2483,62980,82861,130237,62980
20050,2479,821,851,2481,62980,82861,130237,62980
20050,2482,833,839,2482,62980,82861,130237,62980
19683,2477,832,858,2479,62980,82861,130237,62980
20050,2478,843,853,2481,62980,82861,130237,62980
20050,2481,847,873,2481,62980,82861,130237,62980
20050,2478,850,864,2482,62980,82861,130237,62980
20050,2478,851,890,2478,62980,82861,130237,62980
20050,2480,851,892,2480,62980,82861,130237,62980
20050,2482,862,901,2479,62980,82861,130237,62980
20050,2483,852,898,2482,62980,82861,130237,62980
19683,2480,850,894,2481,62980,82861,130237,62980
20050,2480,855,907,2480,62980,82861,130237,62980
20050,2481,868,910,2479,62980,82861,130237,62980
20050,2480,870,890,2478,62980,82861,130237,62980
20050,2479,867,894,2480,62980,82861,130237,62980
20050,2479,862,880,2483,62980,82861,130237,62980
20050,2480,864,895,2482,62980,82861,130237,62980
19683,2479,848,878,2482,62980,82861,130237,62980
20050,2479,847,890,2479,62980,82861,130237,62980
20050,2479,845,881,2481,62980,82861,130237,62980
20050,2479,853,853,2481,62980,82861,130237,62980
20050,2477,847,829,2478,62980,82861,130237,62980
20050,2481,846,845,2478,62980,82861,130237,62980
20050,2481,859,860,2481,62980,82861,130237,62980
20050,2482,856,924,2484,62980,82861,130237,62980
19683,2481,857,946,2478,62980,82861,130237,62980
20050,2480,860,999,2480,62980,82861,130237,62980
20050,2483,872,1032,2479,62980,82861,130237,62980
20050,2478,888,1062,2480,62980,82861,130237,62980
20050,2479,875,1051,2483,62980,82861,130237,62980
20050,2480,880,1012,2482,62980,82861,130237,62980
20050,2481,880,978,2483,62980,82861,130237,62980
20050,2481,881,976,2479,62980,82861,130237,62980
19683,2480,894,1001,2481,62980,82861,130237,62980
20050,2481,899,1007,2480,62980,82861,130237,62980
20050,2479,896,1012,2479,62980,82861,130237,62980
20050,2481,897,1006,2480,62980,82861,130237,62980
20050,2475,884,976,2478,62980,82861,130237,62980
20050,2479,889,977,2479,62980,82861,130237,62980
20050,2480,881,981,2481,62980,82861,130237,62980
19683,2479,884,968,2479,62980,82861,130237,62980
20080,2479,881,963,2478,62980,82814,130049,62980
20050,2478,869,687,2478,62980,82814,130049,62980
20050,2480,865,687,2481,62980,82814,130049,62980
20050,2479,862,683,2481,62980,82814,130049,62980
20050,2478,861,667,2480,62980,82814,130049,62980
20050,2478,860,661,2481,62980,82814,130049,62980
19683,2480,862,663,2481,62980,82814,130049,62980
20050,2480,866,622,2480,62980,82814,130049,62980
20050,2479,861,633,2479,62980,82814,130049,62980
20050,2477,865,614,2481,62980,82814,130049,62980
20050,2478,869,634,2480,62980,82814,130049,62980
20050,2478,866,623,2481,62980,82814,130049,62980
20050,2480,865,613,2481,62980,82814,130049,62980
19683,2479,853,589,2482,62980,82814,130049,62980
20050,2482,858,598,2481,62980,82814,130049,62980
20050,2478,871,602,2481,62980,82814,130049,62980
20050,2482,888,605,2477,62980,82814,130049,62980
20050,2480,885,588,2478,62980,82814,130049,62980
20050,2481,882,600,2480,62980,82814,130049,62980
20050,2483,888,601,2482,62980,82814,130049,62980
20050,2480,895,617,2484,62980,82814,130049,62980
19683,2482,886,603,2479,62980,82814,130049,62980
20050,2482,899,646,2481,62980,82814,130049,62980
20050,2481,904,668,2481,62980,82814,130049,62980
20050,2483,926,698,2484,62980,82814,130049,62980
20050,2479,934,707,2482,62980,82814,130049,62980
20050,2479,938,703,2480,62980,82814,130049,62980
20050,2476,934,697,2480,62980,82814,130049,62980
20050,2483,930,729,2481,62980,82814,130049,62980
19683,2479,927,712,2481,62980,82814,130049,62980
20050,2480,938,734,2479,62980,82814,130049,62980
20050,2481,932,712,2478,62980,82814,130049,62980
20050,2479,938,723,2481,62980,82814,130049,62980
20050,2484,939,730,2482,62980,82814,130049,62980
20050,2480,954,735,2483,62980,82814,130049,62980
20050,2477,961,735,2480,62980,82814,130049,62980
19683,2482,965,716,2482,62980,82814,130049,62980
20050,2481,961,726,2484,62980,82814,130049,62980
20050,2482,961,775,2484,62980,82814,130049,62980
20050,2482,970,826,2480,62980,82814,130049,62980
20050,2478,983,908,2484,62980,82814,130049,62980
20050,2480,994,924,2479,62980,82814,130049,62980
20050,2480,1007,933,2481,62980,82814,130049,62980
20050,2479,1001,929,2482,62980,82814,130049,62980
19683,2479,1009,910,2481,62980,82814,130049,62980
20050,2480,1008,883,2479,62980,82814,130049,62980
20050,2481,1018,851,2482,62980,82814,130049,62980
20050,2481,1016,855,2479,62980,82814,130049,62980
20050,2482,1029,875,2482,62980,82814,130049,62980
20050,2481,1039,842,2482,62980,82814,130049,62980
20050,2479,1047,817,2480,62980,82814,130049,62980
19683,2482,1046,803,2479,62980,82814,130049,62980
20050,2481,1049,798,2478,62980,82814,130049,62980
20050,2480,1050,797,2482,62980,82814,130049,62980
20050,2482,1052,798,2479,62980,82814,130049,62980
20050,2480,1045,795,2483,62980,82814,130049,62980
20050,2485,1039,793,2483,62980,82814,130049,62980
20050,2484,1037,812,2483,62980,82814,130049,62980
20050,2479,1034,803,2485,62980,82814,130049,62980
19683,2481,1032,792,2480,62980,82814,130049,62980
20050,2477,1038,789,2481,62980,82814,130049,62980
20050,2481,1030,776,2477,62980,82814,130049,62980
20050,2479,1034,760,2481,62980,82814,130049,62980
20050,2481,1025,767,2481,62980,82814,130049,62980
20050,2482,1019,748,2483,62980,82814,130049,62980
20050,2481,1015,751,2482,62980,82814,130049,62980
19683,2479,1008,698,2483,62980,82814,130049,62980
20050,2478,1002,694,2484,62980,82814,130049,62980
20050,2481,994,685,2478,62980,82814,130049,62980
20050,2476,1001,688,2480,62980,82814,130049,62980
20050,2477,1000,676,2481,62980,82814,130049,62980
20050,2480,1009,676,2481,62980,82814,130049,62980
20050,2481,998,666,2481,62980,82814,130049,62980
20050,2480,993,688,2482,62980,82814,130049,62980
19683,2481,988,680,2481,62980,82814,130049,62980
20050,2479,990,698,2481,62980,82814,130049,62980
20050,2477,1007,679,2478,62980,82814,130049,62980
20050,2480,1005,653,2480,62980,82814,130049,62980
20050,2482,997,641,2483,62980,82814,130049,62980
20050,2483,1010,642,2481,62980,82814,130049,62980
20050,2479,1006,645,2481,62980,82814,130049,62980
19683,2478,1001,639,2482,62980,82814,130049,62980
20050,2481,984,613,2481,62980,82814,130049,62980
20050,2479,977,598,2482,62980,82814,130049,62980
20050,2480,981,592,2476,62980,82814,130049,62980
20050,2477,987,582,2479,62980,82814,130049,62980
20050,2481,976,548,2480,62980,82814,130049,62980
20050,2478,967,564,2480,62980,82814,130049,62980
20050,2479,952,589,2480,62980,82814,130049,62980
19683,2479,965,635,2480,62980,82814,130049,62980
20050,2477,979,693,2482,62980,82814,130049,62980
20050,2482,984,683,2480,62980,82814,130049,62980
20050,2485,972,675,2481,62980,82814,130049,62980
20050,2479,960,629,2477,62980,82814,130049,62980
20050,2478,963,597,2481,62980,82814,130049,62980
20050,2482,978,605,2480,62980,82814,130049,62980
19683,2480,979,569,2480,62980,82814,130049,62980
20050,2480,970,532,2483,62980,82814,130049,62980
20050,2478,950,503,2480,62980,82814,130049,62980
20050,2480,947,501,2479,62980,82814,130049,62980
20050,2481,935,517,2482,62980,82814,130049,62980
20050,2479,916,481,2481,62980,82814,130049,62980
20050,2484,896,477,2480,62980,82814,130049,62980
20050,2480,900,494,2482,62980,82814,130049,62980
19683,2481,894,494,2481,62980,82814,130049,62980
20050,2482,891,475,2479,62980,82814,130049,62980
20050,2477,886,472,2480,62980,82814,130049,62980
20050,2479,889,460,2482,62980,82814,130049,62980
20050,2480,877,469,2479,62980,82814,130049,62980
20050,2482,879,451,2483,62980,82814,130049,62980
20050,2478,875,471,2482,62980,82814,130049,62980
19683,2479,879,437,2482,62980,82814,130049,62980
20050,2484,880,443,2481,62980,82814,130049,62980
20050,2482,882,412,2482,62980,82814,130049,62980
20050,2478,887,413,2482,62980,82814,130049,62980
20050,2478,881,396,2480,62980,82814,130049,62980
20050,2479,887,402,2481,62980,82814,130049,62980
20050,2481,891,420,2483,62980,82814,130049,62980
20050,2481,895,450,2480,62980,82814,130049,62980
19683,2482,890,440,2484,62980,82814,130049,62980
20050,2479,890,471,2484,62980,82814,130049,62980
20050,2478,905,458,2482,62980,82814,130049,62980
20050,2481,916,481,2482,62980,82814,130049,62980
20050,2481,905,465,2485,62980,82814,130049,62980
20050,2480,912,459,2482,62980,82814,130049,62980
20050,2478,911,476,2481,62980,82814,130049,62980
20050,2481,918,473,2481,62980,82814,130049,62980
19683,2477,911,484,2487,62980,82814,130049,62980
20050,2484,910,474,2481,62980,82814,130049,62980
20050,2479,911,456,2481,62980,82814,130049,62980
20050,2482,901,447,2479,62980,82814,130049,62980
20050,2479,910,419,2480,62980,82814,130049,62980
20050,2482,911,449,2483,62980,82814,130049,62980
20050,2482,907,447,2481,62980,82814,130049,62980
19683,2480,906,442,2484,62980,82814,130049,62980
20050,2478,896,432,2481,62980,82814,130049,62980
20050,2482,904,454,2483,62980,82814,130049,62980
20050,2483,904,499,2483,62980,82814,130049,62980
20050,2483,905,546,2482,62980,82814,130049,62980
20050,2482,907,566,2481,62980,82814,130049,62980
20050,2480,917,618,2482,62980,82814,130049,62980
20050,2480,930,627,2481,62980,82814,130049,62980
19683,2480,940,660,2481,62980,82814,130049,62980
20050,2480,948,663,2483,62980,82814,130049,62980
20050,2477,952,654,2480,62980,82814,130049,62980
20050,2478,942,643,2480,62980,82814,130049,62980
20050,2480,955,623,2480,62980,82814,130049,62980
20050,2480,963,635,2483,62980,82814,130049,62980
20050,2479,976,636,2483,62980,82814,130049,62980
19683,2478,974,632,2483,62980,82814,130049,62980
20080,2478,965,632,2479,62980,82673,130096,62980
20050,2480,739,894,2478,62980,82673,130096,62980
20050,2479,734,906,2483,62980,82673,130096,62980
20050,2482,729,942,2477,62980,82673,130096,62980
20050,2480,729,941,2481,62980,82673,130096,62980
20050,2475,721,958,2481,62980,82673,130096,62980
19683,2481,725,921,2482,62980,82673,130096,62980
20050,2480,730,944,2479,62980,82673,130096,62980
20050,2481,740,943,2481,62980,82673,130096,62980
20050,2481,746,956,2481,62980,82673,130096,62980
20050,2478,736,953,2480,62980,82673,130096,62980
20050,2479,743,952,2479,62980,82673,130096,62980
20050,2480,745,966,2481,62980,82673,130096,62980
20050,2476,745,975,2480,62980,82673,130096,62980
19683,2480,745,957,2482,62980,82673,130096,62980
20050,2479,749,958,2480,62980,82673,130096,62980
20050,2477,749,930,2481,62980,82673,130096,62980
20050,2478,771,972,2482,62980,82673,130096,62980
20050,2478,768,969,2481,62980,82673,130096,62980
20050,2478,772,971,2481,62980,82673,130096,62980
20050,2478,763,990,2480,62980,82673,130096,62980
19683,2482,766,998,2481,62980,82673,130096,62980
20050,2480,760,1006,2484,62980,82673,130096,62980
20050,2482,766,1014,2483,62980,82673,130096,62980
20050,2479,771,1006,2479,62980,82673,130096,62980
20050,2479,769,1010,2482,62980,82673,130096,62980
20050,2481,769,955,2483,62980,82673,130096,62980
20050,2481,766,967,2484,62980,82673,130096,62980
20050,2480,763,940,2483,62980,82673,130096,62980
19683,2480,761,915,2482,62980,82673,130096,62980
20050,2478,738,880,2481,62980,82673,130096,62980
20050,2480,740,876,2482,62980,82673,130096,62980
20050,2483,740,896,2484,62980,82673,130096,62980
20050,2478,742,871,2481,62980,82673,130096,62980
20050,2482,729,840,2483,62980,82673,130096,62980
20050,2478,730,835,2481,62980,82673,130096,62980
19683,2480,737,840,2483,62980,82673,130096,62980
20050,2479,746,866,2480,62980,82673,130096,62980
20050,2481,733,865,2479,62980,82673,130096,62980
20050,2479,727,879,2480,62980,82673,130096,62980
20050,2480,722,934,2481,62980,82673,130096,62980
20050,2481,757,1000,2483,62980,82673,130096,62980
20050,2482,775,1068,2482,62980,82673,130096,62980
20050,2481,779,1053,2480,62980,82673,130096,62980
19683,2481,776,1041,2480,62980,82673,130096,62980
20050,2481,784,1044,2479,62980,82673,130096,62980
20050,2480,796,1043,2481,62980,82673,130096,62980
20050,2481,801,1041,2481,62980,82673,130096,62980
20050,2479,799,1052,2479,62980,82673,130096,62980
20050,2480,818,1079,2483,62980,82673,130096,62980
20050,2480,823,1090,2480,62980,82673,130096,62980
19683,2479,825,1083,2480,62980,82673,130096,62980
20050,2482,811,1096,2483,62980,82673,130096,62980
20050,2479,804,1077,2481,62980,82673,130096,62980
20050,2476,810,1099,2477,62980,82673,130096,62980
20050,2476,813,1111,2480,62980,82673,130096,62980
20050,2482,820,1137,2482,62980,82673,130096,62980
20050,2480,832,1190,2482,62980,82673,130096,62980
20050,2476,845,1214,2480,62980,82673,130096,62980
19683,2478,849,1193,2482,62980,82673,130096,62980
20050,2479,834,1195,2481,62980,82673,130096,62980
20050,2482,833,1168,2481,62980,82673,130096,62980
20050,2483,846,1216,2482,62980,82673,130096,62980
20050,2480,853,1217,2481,62980,82673,130096,62980
20050,2479,859,1240,2483,62980,82673,130096,62980
20050,2482,859,1244,2481,62980,82673,130096,62980
19683,2479,869,1252,2482,62980,82673,130096,62980
20050,2482,874,1248,2482,62980,82673,130096,62980
20050,2483,884,1232,2483,62980,82673,130096,62980
20050,2477,878,1201,2480,62980,82673,130096,62980
20050,2480,875,1213,2477,62980,82673,130096,62980
20050,2482,891,1219,2481,62980,82673,130096,62980
20050,2477,908,1256,2482,62980,82673,130096,62980
20050,2482,905,1263,2483,62980,82673,130096,62980
19683,2479,910,1255,2480,62980,82673,130096,62980
20050,2478,893,1264,2480,62980,82673,130096,62980
20050,2479,916,1277,2482,62980,82673,130096,62980
20050,2481,920,1262,2484,62980,82673,130096,62980
20050,2482,925,1260,2482,62980,82673,130096,62980
20050,2480,926,1244,2482,62980,82673,130096,62980
20050,2479,931,1252,2481,62980,82673,130096,62980
19683,2481,935,1247,2481,62980,82673,130096,62980
20324,2479,922,1263,2482,62980,82673,130096,62980
19683,2479,925,1231,2483,62980,82673,130096,62980
20050,2480,921,1244,2479,62980,82673,130096,62980
20050,2479,921,1226,2479,62980,82673,130096,62980
20050,2481,938,1227,2482,62980,82673,130096,62980
20050,2480,936,1222,2482,62980,82673,130096,62980
20050,2480,935,1220,2482,62980,82673,130096,62980
20050,2481,938,1207,2480,62980,82673,130096,62980
20050,2480,942,1239,2480,62980,82673,130096,62980
19683,2479,946,1241,2479,62980,82673,130096,62980
20050,2477,940,1299,2481,62980,82673,130096,62980
20050,2479,939,1289,2484,62980,82673,130096,62980
20050,2479,951,1316,2482,62980,82673,130096,62980
20050,2479,958,1324,2479,62980,82673,130096,62980
20050,2483,962,1310,2485,62980,82673,130096,62980
20050,2481,949,1296,2482,62980,82673,130096,62980
19683,2480,954,1284,2484,62980,82673,130096,62980
20050,2482,951,1266,2481,62980,82673,130096,62980
20050,2478,960,1278,2481,62980,82673,130096,62980
20050,2480,955,1234,2481,62980,82673,130096,62980
20050,2482,957,1230,2482,62980,82673,130096,62980
20050,2480,956,1200,2480,62980,82673,130096,62980
20050,2481,959,1208,2482,62980,82673,130096,62980
20050,2478,941,1201,2479,62980,82673,130096,62980
19958,2483,934,1214,2482,62980,82673,130096,62980
20050,2485,935,1219,2482,62980,82673,130096,62980
19958,2483,947,1183,2484,62980,82673,130096,62980
20050,2478,930,1180,2482,62980,82673,130096,62980
19958,2482,916,1211,2481,62980,82673,130096,62980
20050,2480,931,1229,2481,62980,82673,130096,62980
19958,2482,945,1249,2482,62980,82673,130096,62980
20050,2481,947,1222,2481,62980,82673,130096,62980
19683,2481,949,1217,2481,62980,82673,130096,62980
20050,2481,943,1220,2479,62980,82673,130096,62980
20050,2481,946,1216,2482,62980,82673,130096,62980
20050,2479,931,1208,2483,62980,82673,130096,62980
20050,2483,938,1180,2483,62980,82673,130096,62980
20050,2480,936,1185,2483,62980,82673,130096,62980
20050,2480,942,1188,2482,62980,82673,130096,62980
19958,2485,941,1190,2481,62980,82673,130096,62980
20050,2480,943,1205,2482,62980,82673,130096,62980
19958,2481,935,1179,2481,62980,82673,130096,62980
20050,2480,934,1156,2484,62980,82673,130096,62980
19683,2480,940,1157,2479,62980,82673,130096,62980
20050,2481,946,1150,2479,62980,82673,130096,62980
20050,2483,932,1141,2483,62980,82673,130096,62980
20050,2480,925,1117,2482,62980,82673,130096,62980
20050,2481,922,1127,2482,62980,82673,130096,62980
20050,2478,916,1113,2478,62980,82673,130096,62980
20050,2483,917,1114,2480,62980,82673,130096,62980
19958,2482,915,1099,2481,62980,82673,130096,62980
20050,2481,917,1080,2479,62980,82673,130096,62980
19958,2479,899,1072,2482,62980,82673,130096,62980
20050,2477,893,1062,2479,62980,82673,130096,62980
19958,2482,905,1068,2485,62980,82673,130096,62980
20050,2481,901,1065,2483,62980,82673,130096,62980
19683,2481,903,1091,2479,62980,82673,130096,62980
20050,2475,899,1123,2481,62980,82673,130096,62980
20050,2479,901,1169,2480,62980,82673,130096,62980
20050,2478,910,1217,2482,62980,82673,130096,62980
20050,2479,914,1239,2483,62980,82673,130096,62980
20050,2480,916,1233,2485,62980,82673,130096,62980
20050,2478,924,1232,2482,62980,82673,130096,62980
19958,2480,910,1186,2482,62980,82673,130096,62980
20050,2482,911,1185,2483,62980,82673,130096,62980
19958,2481,915,1203,2484,62980,82673,130096,62980
20050,2482,926,1208,2483,62980,82673,130096,62980
19683,2480,929,1204,2483,62980,82673,130096,62980
20080,2479,927,1199,2478,62980,82579,129626,62980
20050,2479,925,718,2479,62980,82579,129626,62980
20050,2480,917,748,2482,62980,82579,129626,62980
20050,2481,909,700,2481,62980,82579,129626,62980
20050,2482,904,716,2483,62980,82579,129626,62980
20050,2479,893,707,2481,62980,82579,129626,62980
19683,2482,897,737,2483,62980,82579,129626,62980
20050,2479,914,769,2487,62980,82579,129626,62980
20050,2477,919,771,2483,62980,82579,129626,62980
20050,2478,920,783,2483,62980,82579,129626,62980
20050,2480,918,767,2477,62980,82579,129626,62980
20050,2480,919,754,2481,62980,82579,129626,62980
20050,2482,926,764,2485,62980,82579,129626,62980
19958,2481,921,763,2484,62980,82579,129626,62980
20050,2481,927,763,2484,62980,82579,129626,62980
19958,2478,925,747,2481,62980,82579,129626,62980
19958,2483,919,749,2482,62980,82579,129626,62980
20050,2482,918,764,2484,62980,82579,129626,62980
19958,2479,939,810,2486,62980,82579,129626,62980
20050,2479,942,789,2480,62980,82579,129626,62980
19958,2477,929,796,2480,62980,82579,129626,62980
20050,2481,925,783,2482,62980,82579,129626,62980
19958,2481,929,787,2483,62980,82579,129626,62980
20050,2481,952,818,2479,62980,82579,129626,62980
19958,2479,944,827,2480,62980,82579,129626,62980
20050,2479,946,834,2480,62980,82579,129626,62980
19958,2479,950,817,2481,62980,82579,129626,62980
20050,2480,950,811,2481,62980,82579,129626,62980
20050,2480,964,829,2479,62980,82579,129626,62980
19683,2480,954,821,2481,62980,82579,129626,62980
20050,2481,950,813,2482,62980,82579,129626,62980
20050,2478,939,801,2480,62980,82579,129626,62980
20050,2480,943,822,2482,62980,82579,129626,62980
20050,2483,947,839,2482,62980,82579,129626,62980
20050,2480,960,841,2482,62980,82579,129626,62980
19958,2478,953,807,2478,62980,82579,129626,62980
20050,2483,954,845,2481,62980,82579,129626,62980
19958,2479,954,882,2479,62980,82579,129626,62980
20050,2478,965,938,2480,62980,82579,129626,62980
19958,2479,981,980,2479,62980,82579,129626,62980
19958,2479,978,1013,2480,62980,82579,129626,62980
20050,2479,987,1067,2480,62980,82579,129626,62980
19958,2480,1008,1090,2482,62980,82579,129626,62980
20050,2478,1024,1083,2481,62980,82579,129626,62980
19958,2481,1033,1124,2479,62980,82579,129626,62980
20050,2479,1047,1124,2483,62980,82579,129626,62980
19958,2482,1061,1120,2483,62980,82579,129626,62980
20050,2481,1071,1145,2482,62980,82579,129626,62980
19958,2481,1073,1132,2481,62980,82579,129626,62980
20050,2481,1084,1178,2482,62980,82579,129626,62980
19958,2481,1089,1162,2481,62980,82579,129626,62980
20050,2484,1099,1169,2483,62980,82579,129626,62980
20050,2482,1102,1194,2482,62980,82579,129626,62980
19683,2479,1093,1198,2482,62980,82579,129626,62980
20050,2482,1095,1213,2481,62980,82579,129626,62980
20050,2479,1091,1213,2477,62980,82579,129626,62980
20050,2478,1089,1219,2481,62980,82579,129626,62980
20050,2480,1084,1232,2483,62980,82579,129626,62980
20050,2480,1101,1237,2482,62980,82579,129626,62980
19958,2478,1107,1241,2483,62980,82579,129626,62980
20050,2481,1108,1248,2479,62980,82579,129626,62980
19958,2477,1105,1235,2482,62980,82579,129626,62980
20050,2483,1103,1232,2480,62980,82579,129626,62980
19958,2480,1106,1226,2483,62980,82579,129626,62980
20050,2479,1107,1225,2480,62980,82579,129626,62980
20050,2479,1121,1256,2482,62980,82579,129626,62980
20050,2481,1117,1256,2482,62980,82579,129626,62980
19683,2478,1118,1282,2479,62980,82579,129626,62980
20050,2480,1128,1279,2481,62980,82579,129626,62980
20050,2479,1139,1277,2482,62980,82579,129626,62980
20050,2478,1145,1283,2480,62980,82579,129626,62980
20050,2480,1150,1301,2481,62980,82579,129626,62980
19958,2483,1144,1295,2477,62980,82579,129626,62980
20050,2475,1141,1296,2483,62980,82579,129626,62980
19958,2476,1159,1299,2482,62980,82579,129626,62980
20050,2480,1163,1309,2478,62980,82579,129626,62980
19958,2477,1171,1327,2483,62980,82579,129626,62980
20050,2481,1161,1321,2484,62980,82579,129626,62980
20050,2481,1166,1303,2484,62980,82579,129626,62980
20050,2478,1163,1300,2479,62980,82579,129626,62980
19683,2478,1172,1318,2480,62980,82579,129626,62980
20050,2481,1182,1317,2481,62980,82579,129626,62980
20050,2482,1180,1309,2479,62980,82579,129626,62980
20050,2479,1180,1291,2481,62980,82579,129626,62980
20050,2480,1179,1310,2478,62980,82579,129626,62980
19958,2481,1180,1302,2479,62980,82579,129626,62980
20050,2478,1180,1316,2479,62980,82579,129626,62980
19958,2481,1189,1357,2481,62980,82579,129626,62980
20050,2480,1199,1371,2483,62980,82579,129626,62980
20050,2479,1195,1419,2482,62980,82579,129626,62980
20050,2480,1188,1420,2481,62980,82579,129626,62980
19683,2481,1198,1468,2483,62980,82579,129626,62980
20050,2481,1197,1476,2482,62980,82579,129626,62980
20050,2478,1209,1462,2482,62980,82579,129626,62980
20050,2481,1203,1420,2482,62980,82579,129626,62980
20050,2480,1208,1400,2479,62980,82579,129626,62980
19958,2481,1216,1424,2480,62980,82579,129626,62980
20050,2480,1218,1417,2481,62980,82579,129626,62980
19958,2480,1229,1384,2485,62980,82579,129626,62980
20050,2478,1217,1375,2481,62980,82579,129626,62980
19958,2477,1216,1374,2483,62980,82579,129626,62980
20050,2484,1225,1377,2482,62980,82579,129626,62980
20050,2479,1221,1381,2484,62980,82579,129626,62980
20050,2480,1215,1351,2478,62980,82579,129626,62980
19683,2480,1204,1362,2482,62980,82579,129626,62980
20050,2480,1199,1330,2481,62980,82579,129626,62980
20050,2481,1202,1338,2482,62980,82579,129626,62980
20050,2479,1197,1340,2481,62980,82579,129626,62980
20050,2482,1201,1333,2483,62980,82579,129626,62980
19958,2477,1187,1324,2483,62980,82579,129626,62980
20050,2479,1180,1297,2485,62980,82579,129626,62980
19958,2480,1195,1304,2485,62980,82579,129626,62980
20050,2480,1189,1287,2484,62980,82579,129626,62980
20050,2481,1185,1260,2481,62980,82579,129626,62980
20050,2482,1165,1253,2486,62980,82579,129626,62980
20050,2481,1170,1240,2482,62980,82579,129626,62980
19683,2483,1170,1233,2484,62980,82579,129626,62980
20050,2483,1184,1258,2482,62980,82579,129626,62980
20050,2478,1192,1233,2484,62980,82579,129626,62980
20050,2479,1191,1227,2481,62980,82579,129626,62980
19958,2479,1178,1207,2479,62980,82579,129626,62980
20050,2480,1168,1198,2480,62980,82579,129626,62980
19958,2478,1172,1193,2482,62980,82579,129626,62980
20050,2482,1174,1175,2481,62980,82579,129626,62980
19958,2479,1173,1182,2482,62980,82579,129626,62980
20050,2479,1171,1151,2481,62980,82579,129626,62980
20050,2482,1158,1144,2484,62980,82579,129626,62980
20050,2482,1150,1137,2482,62980,82579,129626,62980
20050,2479,1143,1108,2484,62980,82579,129626,62980
19683,2476,1137,1082,2482,62980,82579,129626,62980
20050,2480,1140,1063,2482,62980,82579,129626,62980
20050,2481,1126,1015,2485,62980,82579,129626,62980
20050,2482,1120,1013,2480,62980,82579,129626,62980
19958,2479,1118,1015,2480,62980,82579,129626,62980
20050,2480,1110,1022,2479,62980,82579,129626,62980
19958,2480,1114,1001,2478,62980,82579,129626,62980
20050,2482,1101,1014,2483,62980,82579,129626,62980
19958,2480,1083,1051,2483,62980,82579,129626,62980
19958,2484,1095,1075,2484,62980,82579,129626,62980
20050,2478,1090,1077,2480,62980,82579,129626,62980
19958,2480,1099,1094,2480,62980,82579,129626,62980
20050,2481,1100,1097,2484,62980,82579,129626,62980
19958,2477,1101,1075,2479,62980,82579,129626,62980
20050,2479,1112,1066,2479,62980,82579,129626,62980
19958,2479,1106,1074,2479,62980,82579,129626,62980
20050,2481,1103,1024,2481,62980,82579,129626,62980
19958,2480,1103,1010,2480,62980,82579,129626,62980
20050,2480,1097,980,2480,62980,82579,129626,62980
19958,2481,1106,1006,2483,62980,82579,129626,62980
20050,2477,1092,1002,2479,62980,82579,129626,62980
20080,2481,1086,990,2480,62980,82250,129203,62980
20050,2483,605,275,2481,62980,82250,129203,62980
20050,2480,595,268,2480,62980,82250,129203,62980
19683,2482,587,253,2482,62980,82250,129203,62980
20050,2482,588,265,2480,62980,82250,129203,62980
20050,2483,584,251,2482,62980,82250,129203,62980
19958,2481,589,280,2481,62980,82250,129203,62980
20050,2482,590,295,2478,62980,82250,129203,62980
19958,2479,599,302,2482,62980,82250,129203,62980
20050,2479,605,303,2480,62980,82250,129203,62980
19958,2480,608,294,2481,62980,82250,129203,62980
20050,2484,603,299,2480,62980,82250,129203,62980
19958,2478,610,285,2482,62980,82250,129203,62980
20050,2481,608,279,2481,62980,82250,129203,62980
19958,2480,606,300,2482,62980,82250,129203,62980
20050,2483,617,298,2478,62980,82250,129203,62980
20050,2480,621,346,2481,62980,82250,129203,62980
20050,2480,627,343,2482,62980,82250,129203,62980
20050,2480,630,352,2481,62980,82250,129203,62980
20050,2482,636,346,2478,62980,82250,129203,62980
19683,2481,636,349,2481,62980,82250,129203,62980
20050,2481,631,329,2480,62980,82250,129203,62980
20050,2479,629,317,2482,62980,82250,129203,62980
19958,2477,626,329,2483,62980,82250,129203,62980
20050,2475,623,334,2477,62980,82250,129203,62980
19958,2480,629,301,2480,62980,82250,129203,62980
20050,2481,635,303,2483,62980,82250,129203,62980
19958,2479,628,296,2480,62980,82250,129203,62980
20050,2478,625,287,2481,62980,82250,129203,62980
20050,2477,627,296,2479,62980,82250,129203,62980
20050,2478,634,286,2481,62980,82250,129203,62980
20050,2482,630,287,2480,62980,82250,129203,62980
20050,2475,635,297,2480,62980,82250,129203,62980
19683,2476,638,295,2480,62980,82250,129203,62980
20050,2477,634,306,2477,62980,82250,129203,62980
20050,2482,630,306,2478,62980,82250,129203,62980
19958,2478,636,334,2482,62980,82250,129203,62980
20050,2478,636,346,2483,62980,82250,129203,62980
19958,2479,637,400,2481,62980,82250,129203,62980
20050,2475,637,438,2480,62980,82250,129203,62980
20050,2481,648,467,2480,62980,82250,129203,62980
20050,2482,655,492,2480,62980,82250,129203,62980
20050,2480,656,481,2483,62980,82250,129203,62980
20050,2480,670,466,2480,62980,82250,129203,62980
19683,2479,671,485,2481,62980,82250,129203,62980
20050,2480,688,467,2480,62980,82250,129203,62980
20050,2477,690,466,2484,62980,82250,129203,62980
19958,2479,695,509,2481,62980,82250,129203,62980
20050,2480,699,501,2481,62980,82250,129203,62980
19958,2479,694,501,2481,62980,82250,129203,62980
20050,2482,697,486,2484,62980,82250,129203,62980
19958,2481,693,520,2479,62980,82250,129203,62980
20050,2477,699,538,2483,62980,82250,129203,62980
20050,2481,698,564,2478,62980,82250,129203,62980
20050,2477,683,535,2482,62980,82250,129203,62980
20050,2482,685,517,2481,62980,82250,129203,62980
20050,2480,689,544,2483,62980,82250,129203,62980
19683,2478,690,538,2483,62980,82250,129203,62980
20050,2478,689,547,2479,62980,82250,129203,62980
20050,2477,684,548,2479,62980,82250,129203,62980
19958,2481,685,559,2481,62980,82250,129203,62980
20050,2481,688,552,2480,62980,82250,129203,62980
19958,2482,695,544,2481,62980,82250,129203,62980
20050,2476,701,563,2477,62980,82250,129203,62980
19958,2476,679,534,2479,62980,82250,129203,62980
20050,2477,687,539,2478,62980,82250,129203,62980
20050,2478,695,540,2480,62980,82250,129203,62980
20050,2480,708,567,2478,62980,82250,129203,62980
20050,2478,714,573,2481,62980,82250,129203,62980
20050,2481,709,599,2478,62980,82250,129203,62980
19683,2479,711,584,2484,62980,82250,129203,62980
20050,2480,721,629,2479,62980,82250,129203,62980
20050,2476,730,618,2476,62980,82250,129203,62980
19958,2475,737,623,2481,62980,82250,129203,62980
20050,2477,728,619,2479,62980,82250,129203,62980
19958,2484,726,626,2484,62980,82250,129203,62980
20050,2484,730,640,2482,62980,82250,129203,62980
20050,2482,740,637,2479,62980,82250,129203,62980
20050,2481,746,647,2484,62980,82250,129203,62980
20050,2478,744,638,2480,62980,82250,129203,62980
20050,2479,751,653,2481,62980,82250,129203,62980
20050,2480,749,652,2484,62980,82250,129203,62980
19683,2483,749,650,2481,62980,82250,129203,62980
20050,2477,744,656,2483,62980,82250,129203,62980
19958,2480,738,644,2482,62980,82250,129203,62980
20050,2478,746,637,2483,62980,82250,129203,62980
19958,2479,747,646,2483,62980,82250,129203,62980
20050,2480,753,645,2481,62980,82250,129203,62980
19958,2481,750,644,2480,62980,82250,129203,62980
20050,2480,757,643,2477,62980,82250,129203,62980
20050,2481,752,609,2481,62980,82250,129203,62980
20050,2479,755,631,2484,62980,82250,129203,62980
20050,2483,760,628,2479,62980,82250,129203,62980
20050,2479,774,690,2479,62980,82250,129203,62980
20050,2479,770,725,2480,62980,82250,129203,62980
19683,2481,782,766,2482,62980,82250,129203,62980
20050,2480,777,785,2483,62980,82250,129203,62980
19958,2482,793,779,2481,62980,82250,129203,62980
20050,2480,798,776,2480,62980,82250,129203,62980
19958,2479,796,766,2476,62980,82250,129203,62980
20050,2482,807,760,2480,62980,82250,129203,62980
20050,2478,806,762,2483,62980,82250,129203,62980
20050,2479,828,789,2481,62980,82250,129203,62980
20050,2479,838,807,2482,62980,82250,129203,62980
20050,2480,843,802,2481,62980,82250,129203,62980
20050,2482,841,784,2483,62980,82250,129203,62980
19683,2482,844,815,2483,62980,82250,129203,62980
20050,2481,839,804,2480,62980,82250,129203,62980
19958,2479,837,823,2482,62980,82250,129203,62980
20050,2478,848,828,2479,62980,82250,129203,62980
19958,2481,855,838,2481,62980,82250,129203,62980
20050,2481,854,852,2481,62980,82250,129203,62980
19958,2479,848,860,2482,62980,82250,129203,62980
20050,2479,850,860,2478,62980,82250,129203,62980
20050,2478,853,841,2481,62980,82250,129203,62980
20050,2484,867,838,2482,62980,82250,129203,62980
20050,2479,861,836,2481,62980,82250,129203,62980
20050,2482,865,831,2480,62980,82250,129203,62980
20050,2481,862,826,2483,62980,82250,129203,62980
19683,2481,859,824,2477,62980,82250,129203,62980
20050,2482,856,804,2483,62980,82250,129203,62980
19958,2481,857,812,2481,62980,82250,129203,62980
20050,2479,871,804,2481,62980,82250,129203,62980
19958,2481,873,798,2481,62980,82250,129203,62980
20050,2478,870,784,2480,62980,82250,129203,62980
19958,2479,882,782,2481,62980,82250,129203,62980
20324,2476,875,787,2482,62980,82250,129203,62980
19683,2479,869,763,2484,62980,82250,129203,62980
20324,2479,857,745,2479,62980,82250,129203,62980
19683,2478,861,758,2481,62980,82250,129203,62980
20324,2480,879,750,2482,62980,82250,129203,62980
19683,2484,863,744,2481,62980,82250,129203,62980
20324,2478,858,727,2481,62980,82250,129203,62980
19683,2480,856,703,2481,62980,82250,129203,62980
20324,2483,860,697,2483,62980,82250,129203,62980
19683,2480,862,697,2485,62980,82250,129203,62980
19958,2482,859,687,2485,62980,82250,129203,62980
20050,2478,856,667,2485,62980,82250,129203,62980
20050,2481,847,642,2483,62980,82250,129203,62980
20050,2478,848,642,2482,62980,82250,129203,62980
20050,2480,852,634,2482,62980,82250,129203,62980
20050,2479,843,616,2482,62980,82250,129203,62980
20050,2480,837,588,2479,62980,82250,129203,62980
20050,2479,834,589,2481,62980,82250,129203,62980
19683,2476,836,574,2480,62980,82250,129203,62980
20324,2480,848,584,2481,62980,82250,129203,62980
19683,2482,841,592,2484,62980,82250,129203,62980
20324,2482,833,602,2484,62980,82250,129203,62980
19683,2479,820,623,2482,62980,82250,129203,62980
20324,2481,825,638,2478,62980,82250,129203,62980
19714,2481,831,651,2480,62980,82391,129391,62980
20050,2481,1069,882,2484,62980,82391,129391,62980
20050,2479,1082,856,2483,62980,82391,129391,62980
20050,2480,1080,816,2480,62980,82391,129391,62980
20050,2478,1080,799,2479,62980,82391,129391,62980
20050,2484,1071,774,2482,62980,82391,129391,62980
20050,2479,1067,753,2482,62980,82391,129391,62980
19683,2477,1059,706,2482,62980,82391,129391,62980
20050,2482,1062,708,2484,62980,82391,129391,62980
20050,2481,1064,696,2482,62980,82391,129391,62980
20050,2484,1073,722,2482,62980,82391,129391,62980
20050,2478,1069,717,2483,62980,82391,129391,62980
20050,2478,1061,703,2485,62980,82391,129391,62980
20050,2481,1030,652,2483,62980,82391,129391,62980
19683,2481,1006,624,2480,62980,82391,129391,62980
20324,2480,999,603,2482,62980,82391,129391,62980
19683,2483,992,589,2484,62980,82391,129391,62980
20050,2480,986,569,2480,62980,82391,129391,62980
20050,2480,993,601,2481,62980,82391,129391,62980
20050,2479,998,597,2483,62980,82391,129391,62980
20050,2480,996,596,2483,62980,82391,129391,62980
20050,2482,979,571,2484,62980,82391,129391,62980
20050,2483,981,559,2484,62980,82391,129391,62980
19683,2479,973,541,2480,62980,82391,129391,62980
20050,2480,978,550,2479,62980,82391,129391,62980
20050,2482,990,535,2481,62980,82391,129391,62980
20050,2482,1003,570,2484,62980,82391,129391,62980
20050,2478,1013,584,2483,62980,82391,129391,62980
20050,2481,1017,600,2483,62980,82391,129391,62980
20050,2481,1013,586,2480,62980,82391,129391,62980
20050,2480,1011,581,2483,62980,82391,129391,62980
19683,2482,997,561,2481,62980,82391,129391,62980
20050,2479,1009,575,2479,62980,82391,129391,62980
20050,2477,1013,567,2480,62980,82391,129391,62980
20050,2479,1016,543,2478,62980,82391,129391,62980
20050,2482,1010,522,2482,62980,82391,129391,62980
20050,2481,1006,528,2483,62980,82391,129391,62980
20050,2483,1003,522,2481,62980,82391,129391,62980
20050,2480,1002,549,2483,62980,82391,129391,62980
19683,2479,989,526,2483,62980,82391,129391,62980
20050,2479,989,527,2483,62980,82391,129391,62980
20050,2482,979,513,2482,62980,82391,129391,62980
20050,2478,990,518,2480,62980,82391,129391,62980
20050,2479,990,499,2481,62980,82391,129391,62980
20050,2483,986,476,2480,62980,82391,129391,62980
20050,2482,975,491,2480,62980,82391,129391,62980
19683,2482,975,543,2482,62980,82391,129391,62980
20050,2481,972,566,2483,62980,82391,129391,62980
20050,2478,982,629,2479,62980,82391,129391,62980
20050,2482,991,650,2482,62980,82391,129391,62980
20050,2480,1004,687,2481,62980,82391,129391,62980
20050,2480,1014,698,2483,62980,82391,129391,62980
20050,2481,1020,686,2483,62980,82391,129391,62980
20050,2476,1009,650,2481,62980,82391,129391,62980
19683,2481,1007,632,2481,62980,82391,129391,62980
20050,2481,1012,655,2482,62980,82391,129391,62980
20050,2483,1031,685,2481,62980,82391,129391,62980
20050,2479,1029,683,2483,62980,82391,129391,62980
20050,2483,1033,704,2481,62980,82391,129391,62980
20050,2480,1034,694,2481,62980,82391,129391,62980
20050,2484,1035,707,2483,62980,82391,129391,62980
19683,2484,1029,728,2480,62980,82391,129391,62980
20050,2480,1030,735,2482,62980,82391,129391,62980
20050,2477,1021,738,2483,62980,82391,129391,62980
20050,2482,1019,725,2479,62980,82391,129391,62980
20050,2484,1023,752,2479,62980,82391,129391,62980
20050,2481,1030,763,2482,62980,82391,129391,62980
20050,2481,1021,739,2481,62980,82391,129391,62980
20050,2480,1018,726,2480,62980,82391,129391,62980
19683,2481,1016,720,2479,62980,82391,129391,62980
20050,2484,1028,724,2484,62980,82391,129391,62980
20050,2480,1025,720,2484,62980,82391,129391,62980
20050,2481,1018,682,2482,62980,82391,129391,62980
20050,2478,1013,691,2479,62980,82391,129391,62980
20050,2481,1008,675,2477,62980,82391,129391,62980
20050,2480,1021,702,2482,62980,82391,129391,62980
19683,2478,1022,698,2483,62980,82391,129391,62980
20050,2480,1019,689,2480,62980,82391,129391,62980
20050,2476,1017,677,2482,62980,82391,129391,62980
20050,2479,1032,705,2478,62980,82391,129391,62980
20050,2480,1042,723,2486,62980,82391,129391,62980
20050,2481,1043,736,2482,62980,82391,129391,62980
20050,2480,1035,718,2483,62980,82391,129391,62980
20050,2481,1027,725,2478,62980,82391,129391,62980
19683,2479,1024,695,2482,62980,82391,129391,62980
20050,2480,1024,695,2481,62980,82391,129391,62980
20050,2479,1028,687,2479,62980,82391,129391,62980
20050,2479,1039,691,2485,62980,82391,129391,62980
20050,2475,1032,679,2479,62980,82391,129391,62980
20050,2479,1043,687,2480,62980,82391,129391,62980
20050,2480,1044,705,2479,62980,82391,129391,62980
19683,2478,1034,695,2483,62980,82391,129391,62980
20050,2477,1021,675,2481,62980,82391,129391,62980
20050,2476,1023,700,2479,62980,82391,129391,62980
20050,2478,1023,664,2478,62980,82391,129391,62980
20050,2479,1024,669,2478,62980,82391,129391,62980
20050,2480,1020,654,2478,62980,82391,129391,62980
20050,2480,1024,632,2481,62980,82391,129391,62980
20050,2478,1014,629,2480,62980,82391,129391,62980
19683,2480,1023,660,2477,62980,82391,129391,62980
20050,2477,1024,710,2483,62980,82391,129391,62980
20050,2480,1024,767,2480,62980,82391,129391,62980
20050,2479,1038,804,2480,62980,82391,129391,62980
20050,2480,1057,859,2478,62980,82391,129391,62980
20050,2477,1075,864,2479,62980,82391,129391,62980
20050,2485,1078,885,2484,62980,82391,129391,62980
19683,2479,1087,878,2479,62980,82391,129391,62980
20050,2482,1094,867,2481,62980,82391,129391,62980
20050,2478,1095,881,2480,62980,82391,129391,62980
20050,2478,1107,890,2481,62980,82391,129391,62980
20050,2479,1110,915,2480,62980,82391,129391,62980
20050,2480,1124,954,2484,62980,82391,129391,62980
20050,2480,1129,929,2480,62980,82391,129391,62980
20050,2477,1125,935,2481,62980,82391,129391,62980
19683,2481,1118,912,2477,62980,82391,129391,62980
20050,2479,1117,927,2483,62980,82391,129391,62980
20050,2479,1114,935,2480,62980,82391,129391,62980
20050,2476,1127,935,2482,62980,82391,129391,62980
20050,2479,1117,970,2481,62980,82391,129391,62980
20050,2480,1121,946,2481,62980,82391,129391,62980
20050,2481,1116,960,2481,62980,82391,129391,62980
19683,2481,1124,950,2484,62980,82391,129391,62980
20050,2480,1124,934,2483,62980,82391,129391,62980
20050,2475,1126,933,2480,62980,82391,129391,62980
20050,2481,1128,921,2482,62980,82391,129391,62980
20050,2484,1128,908,2483,62980,82391,129391,62980
20050,2479,1126,916,2481,62980,82391,129391,62980
20050,2478,1128,918,2480,62980,82391,129391,62980
20050,2480,1128,931,2479,62980,82391,129391,62980
19683,2479,1139,912,2481,62980,82391,129391,62980
20050,2481,1140,935,2483,62980,82391,129391,62980
20050,2478,1146,938,2477,62980,82391,129391,62980
20050,2478,1152,938,2481,62980,82391,129391,62980
20050,2477,1154,944,2480,62980,82391,129391,62980
20050,2478,1164,976,2480,62980,82391,129391,62980
20050,2480,1166,1001,2483,62980,82391,129391,62980
20050,2481,1173,1010,2485,62980,82391,129391,62980
19683,2479,1171,996,2482,62980,82391,129391,62980
20050,2479,1172,1030,2479,62980,82391,129391,62980
20050,2484,1186,1006,2484,62980,82391,129391,62980
20050,2481,1192,1026,2482,62980,82391,129391,62980
20050,2477,1189,1004,2480,62980,82391,129391,62980
20050,2479,1203,1027,2481,62980,82391,129391,62980
20050,2478,1198,1023,2478,62980,82391,129391,62980
19683,2480,1206,1038,2481,62980,82391,129391,62980
20050,2478,1194,1013,2480,62980,82391,129391,62980
20050,2480,1197,1021,2483,62980,82391,129391,62980
20050,2480,1196,1009,2484,62980,82391,129391,62980
20050,2478,1207,1036,2479,62980,82391,129391,62980
20050,2480,1219,1023,2481,62980,82391,129391,62980
20080,2480,1224,1032,2481,62980,82156,129344,62980
19683,2480,995,1022,2481,62980,82156,129344,62980
20050,2479,1003,1012,2478,62980,82156,129344,62980
20050,2480,990,1023,2483,62980,82156,129344,62980
20050,2480,998,1072,2483,62980,82156,129344,62980
20050,2482,994,1130,2483,62980,82156,129344,62980
20050,2481,1008,1154,2481,62980,82156,129344,62980
20050,2479,1014,1135,2482,62980,82156,129344,62980
20050,2480,1011,1143,2479,62980,82156,129344,62980
19683,2480,1013,1109,2484,62980,82156,129344,62980
20050,2484,1008,1085,2483,62980,82156,129344,62980
20050,2480,1019,1063,2481,62980,82156,129344,62980
20050,2481,1034,1071,2485,62980,82156,129344,62980
20050,2477,1031,1077,2479,62980,82156,129344,62980
20050,2483,1035,1045,2480,62980,82156,129344,62980
20050,2482,1027,1033,2484,62980,82156,129344,62980
19683,2480,1039,1015,2482,62980,82156,129344,62980
20050,2479,1044,1025,2485,62980,82156,129344,62980
20050,2476,1038,1037,2477,62980,82156,129344,62980
20050,2479,1037,1047,2480,62980,82156,129344,62980
20050,2482,1036,1039,2487,62980,82156,129344,62980
20050,2480,1018,1014,2484,62980,82156,129344,62980
20050,2482,1003,994,2485,62980,82156,129344,62980
20050,2481,988,995,2484,62980,82156,129344,62980
19683,2484,996,981,2479,62980,82156,129344,62980
20050,2479,1018,1006,2483,62980,82156,129344,62980
20050,2482,1017,968,2484,62980,82156,129344,62980
20050,2481,1014,976,2478,62980,82156,129344,62980
20050,2478,1013,977,2482,62980,82156,129344,62980
20050,2482,1032,989,2481,62980,82156,129344,62980
20050,2481,1017,966,2482,62980,82156,129344,62980
19683,2478,1012,948,2484,62980,82156,129344,62980
20050,2481,1014,945,2481,62980,82156,129344,62980
20050,2480,1031,982,2478,62980,82156,129344,62980
20050,2484,1050,957,2481,62980,82156,129344,62980
20050,2479,1042,959,2481,62980,82156,129344,62980
20050,2480,1039,914,2482,62980,82156,129344,62980
20050,2479,1038,921,2481,62980,82156,129344,62980
20050,2477,1034,915,2479,62980,82156,129344,62980
19683,2480,1038,915,2482,62980,82156,129344,62980
20050,2480,1035,894,2480,62980,82156,129344,62980
20050,2480,1033,877,2485,62980,82156,129344,62980
20050,2480,1022,855,2479,62980,82156,129344,62980
20050,2476,1019,864,2479,62980,82156,129344,62980
20050,2482,1024,825,2478,62980,82156,129344,62980
20050,2481,1014,805,2481,62980,82156,129344,62980
19683,2480,988,760,2481,62980,82156,129344,62980
20050,2478,984,760,2479,62980,82156,129344,62980
20050,2480,982,773,2481,62980,82156,129344,62980
20050,2480,1001,773,2481,62980,82156,129344,62980
20050,2478,996,774,2483,62980,82156,129344,62980
20050,2481,992,779,2481,62980,82156,129344,62980
20050,2478,998,798,2480,62980,82156,129344,62980
20050,2480,997,842,2478,62980,82156,129344,62980
19683,2479,1006,860,2483,62980,82156,129344,62980
20050,2478,999,881,2482,62980,82156,129344,62980
20050,2480,993,860,2482,62980,82156,129344,62980
20050,2477,1000,863,2480,62980,82156,129344,62980
20050,2479,1008,892,2479,62980,82156,129344,62980
20050,2481,1029,873,2481,62980,82156,129344,62980
20050,2484,1035,871,2481,62980,82156,129344,62980
19683,2480,1044,858,2480,62980,82156,129344,62980
20050,2479,1048,855,2482,62980,82156,129344,62980
20050,2479,1048,866,2479,62980,82156,129344,62980
20050,2481,1042,856,2481,62980,82156,129344,62980
20050,2481,1033,848,2482,62980,82156,129344,62980
20050,2481,1019,850,2482,62980,82156,129344,62980
20050,2478,1024,856,2479,62980,82156,129344,62980
20050,2480,1023,877,2478,62980,82156,129344,62980
19683,2482,1022,849,2477,62980,82156,129344,62980
20050,2477,1000,854,2481,62980,82156,129344,62980
20050,2480,998,837,2483,62980,82156,129344,62980
20050,2478,988,854,2480,62980,82156,129344,62980
20050,2477,981,854,2477,62980,82156,129344,62980
20050,2480,979,842,2482,62980,82156,129344,62980
20050,2479,968,850,2477,62980,82156,129344,62980
19683,2477,974,848,2480,62980,82156,129344,62980
20050,2480,975,825,2480,62980,82156,129344,62980
20050,2478,979,817,2478,62980,82156,129344,62980
20050,2481,981,775,2482,62980,82156,129344,62980
20050,2480,982,789,2481,62980,82156,129344,62980
20050,2476,983,776,2482,62980,82156,129344,62980
20050,2479,993,805,2483,62980,82156,129344,62980
20050,2481,989,808,2481,62980,82156,129344,62980
19683,2480,1003,839,2479,62980,82156,129344,62980
20050,2480,1000,847,2481,62980,82156,129344,62980
20050,2482,1012,859,2485,62980,82156,129344,62980
20050,2481,1014,834,2482,62980,82156,129344,62980
20050,2478,1021,871,2482,62980,82156,129344,62980
20050,2480,1033,863,2482,62980,82156,129344,62980
20050,2480,1042,892,2483,62980,82156,129344,62980
19683,2483,1026,856,2479,62980,82156,129344,62980
20050,2478,1025,869,2481,62980,82156,129344,62980
20050,2476,1024,877,2479,62980,82156,129344,62980
20050,2480,1038,877,2483,62980,82156,129344,62980
20050,2480,1031,863,2481,62980,82156,129344,62980
20050,2480,1035,868,2478,62980,82156,129344,62980
20050,2480,1037,855,2481,62980,82156,129344,62980
20050,2478,1044,888,2479,62980,82156,129344,62980
19683,2480,1046,902,2482,62980,82156,129344,62980
20050,2481,1053,957,2479,62980,82156,129344,62980
20050,2479,1053,985,2481,62980,82156,129344,62980
20050,2479,1057,1033,2479,62980,82156,129344,62980
20050,2480,1065,1089,2478,62980,82156,129344,62980
20050,2481,1098,1144,2480,62980,82156,129344,62980
20050,2481,1109,1186,2481,62980,82156,129344,62980
20050,2479,1113,1181,2480,62980,82156,129344,62980
19683,2479,1120,1194,2479,62980,82156,129344,62980
20050,2476,1129,1192,2479,62980,82156,129344,62980
20050,2479,1126,1175,2480,62980,82156,129344,62980
20050,2477,1125,1193,2481,62980,82156,129344,62980
20050,2476,1128,1197,2479,62980,82156,129344,62980
20050,2477,1148,1222,2482,62980,82156,129344,62980
20050,2479,1155,1226,2481,62980,82156,129344,62980
19683,2480,1150,1205,2476,62980,82156,129344,62980
20050,2477,1144,1226,2477,62980,82156,129344,62980
20050,2478,1138,1218,2479,62980,82156,129344,62980
20050,2478,1135,1237,2477,62980,82156,129344,62980
20050,2479,1128,1246,2477,62980,82156,129344,62980
20050,2480,1124,1238,2482,62980,82156,129344,62980
20050,2480,1118,1255,2483,62980,82156,129344,62980
20050,2480,1112,1232,2479,62980,82156,129344,62980
19683,2475,1112,1225,2479,62980,82156,129344,62980
20050,2479,1117,1224,2479,62980,82156,129344,62980
20050,2480,1120,1208,2480,62980,82156,129344,62980
20050,2475,1115,1218,2478,62980,82156,129344,62980
20050,2478,1114,1194,2478,62980,82156,129344,62980
20050,2480,1105,1175,2479,62980,82156,129344,62980
20050,2475,1098,1150,2480,62980,82156,129344,62980
19683,2477,1107,1169,2479,62980,82156,129344,62980
20050,2478,1128,1196,2479,62980,82156,129344,62980
20050,2478,1138,1194,2481,62980,82156,129344,62980
20050,2480,1139,1188,2482,62980,82156,129344,62980
20050,2477,1151,1217,2477,62980,82156,129344,62980
20050,2483,1159,1223,2482,62980,82156,129344,62980
20050,2484,1163,1257,2482,62980,82156,129344,62980
20050,2478,1157,1228,2483,62980,82156,129344,62980
19683,2481,1165,1253,2481,62980,82156,129344,62980
20050,2477,1172,1260,2478,62980,82156,129344,62980
20050,2479,1185,1246,2483,62980,82156,129344,62980
20050,2479,1175,1229,2480,62980,82156,129344,62980
20050,2479,1169,1198,2481,62980,82156,129344,62980
20050,2477,1168,1195,2482,62980,82156,129344,62980
20050,2481,1174,1207,2484,62980,82156,129344,62980
19683,2480,1172,1208,2481,62980,82156,129344,62980
20050,2480,1161,1210,2481,62980,82156,129344,62980
20050,2478,1155,1176,2479,62980,82156,129344,62980
20050,2479,1155,1190,2478,62980,82156,129344,62980
20050,2476,1162,1185,2479,62980,82156,129344,62980
20050,2481,1176,1192,2480,62980,82156,129344,62980
20080,2480,1167,1208,2480,62980,81921,129015,62980
19683,2482,929,1002,2481,62980,81921,129015,62980
20050,2480,944,1076,2479,62980,81921,129015,62980
20050,2479,965,1133,2480,62980,81921,129015,62980
20050,2480,974,1158,2482,62980,81921,129015,62980
20050,2480,972,1170,2483,62980,81921,129015,62980
20050,2480,977,1169,2484,62980,81921,129015,62980
20050,2475,986,1180,2481,62980,81921,129015,62980
20050,2480,997,1172,2479,62980,81921,129015,62980
19683,2479,1014,1167,2483,62980,81921,129015,62980
20050,2477,1023,1205,2482,62980,81921,129015,62980
20050,2481,1034,1197,2482,62980,81921,129015,62980
20050,2482,1037,1230,2482,62980,81921,129015,62980
20050,2477,1037,1224,2477,62980,81921,129015,62980
20050,2482,1036,1208,2480,62980,81921,129015,62980
20050,2476,1025,1211,2482,62980,81921,129015,62980
19683,2481,1029,1231,2481,62980,81921,129015,62980
20050,2478,1044,1259,2480,62980,81921,129015,62980
20050,2479,1046,1265,2477,62980,81921,129015,62980
20050,2479,1043,1238,2481,62980,81921,129015,62980
20050,2481,1033,1272,2479,62980,81921,129015,62980
20050,2479,1036,1264,2480,62980,81921,129015,62980
20050,2480,1046,1281,2481,62980,81921,129015,62980
20050,2479,1049,1259,2482,62980,81921,129015,62980
19683,2482,1052,1254,2480,62980,81921,129015,62980
20050,2484,1045,1246,2479,62980,81921,129015,62980
20050,2480,1056,1251,2483,62980,81921,129015,62980
20050,2479,1059,1247,2483,62980,81921,129015,62980
20050,2478,1065,1249,2477,62980,81921,129015,62980
20050,2478,1070,1233,2483,62980,81921,129015,62980
20050,2481,1072,1248,2480,62980,81921,129015,62980
19683,2480,1070,1218,2479,62980,81921,129015,62980
20050,2481,1066,1213,2482,62980,81921,129015,62980
20050,2480,1066,1184,2476,62980,81921,129015,62980
