20233,2487,1323,976,2489,62980,100533,138650,62980
19866,2485,1304,981,2489,62980,100533,138650,62980
19866,2487,1288,961,2486,62980,100533,138650,62980
20233,2486,1254,990,2487,62980,100533,138650,62980
19714,2489,1269,960,2492,62980,100533,138650,62980
20050,2491,1231,965,2489,62980,100533,138650,62980
20050,2489,1249,950,2489,62980,100533,138650,62980
20050,2487,1245,936,2490,62980,100533,138650,62980
20050,2487,1295,964,2488,62980,100533,138650,62980
20050,2486,1340,961,2490,62980,100533,138650,62980
20050,2489,1364,1001,2492,62980,100533,138650,62980
20050,2489,1353,996,2490,62980,100533,138650,62980
19683,2486,1326,1013,2493,62980,100533,138650,62980
20050,2491,1326,981,2489,62980,100533,138650,62980
20050,2489,1372,988,2493,62980,100533,138650,62980
20050,2487,1366,952,2489,62980,100533,138650,62980
20050,2488,1373,945,2491,62980,100533,138650,62980
20050,2486,1356,925,2491,62980,100533,138650,62980
20050,2485,1365,960,2489,62980,100533,138650,62980
19714,2487,1333,933,2493,62980,100345,138556,62980
20050,2488,1101,961,2490,62980,100345,138556,62980
20050,2489,1050,916,2489,62980,100345,138556,62980
20050,2490,1061,900,2489,62980,100345,138556,62980
20050,2486,1039,900,2488,62980,100345,138556,62980
20050,2490,1071,868,2489,62980,100345,138556,62980
20050,2490,1034,828,2493,62980,100345,138556,62980
19683,2486,1035,803,2490,62980,100345,138556,62980
20050,2487,1010,835,2491,62980,100345,138556,62980
20050,2490,1027,924,2490,62980,100345,138556,62980
20050,2488,1019,903,2490,62980,100345,138556,62980
20050,2486,994,877,2491,62980,100345,138556,62980
20050,2488,959,796,2490,62980,100345,138556,62980
20050,2488,964,742,2491,62980,100345,138556,62980
20050,2487,949,720,2488,62980,100345,138556,62980
19683,2489,957,670,2490,62980,100345,138556,62980
20050,2487,926,639,2489,62980,100345,138556,62980
20050,2492,915,627,2486,62980,100345,138556,62980
20050,2488,927,653,2489,62980,100345,138556,62980
20050,2487,927,641,2489,62980,100345,138556,62980
20050,2485,935,622,2485,62980,100345,138556,62980
20050,2486,968,617,2494,62980,100345,138556,62980
19683,2487,1004,546,2487,62980,100345,138556,62980
20050,2487,1026,386,2487,62980,100345,138556,62980
20050,2484,1059,296,2485,62980,100345,138556,62980
20050,2486,1073,142,2485,62980,100345,138556,62980
20050,2487,1015,65,2487,62980,100345,138556,62980
20050,2486,901,52,2487,62980,100345,138556,62980
20050,2487,758,50,2487,62980,100345,138556,62980
20050,2485,427,41,2484,62980,100345,138556,62980
19683,2485,166,45,2485,62980,100345,138556,62980
20050,2480,1119,34,2481,62980,100345,138556,62980
20050,2478,1749,44,2479,62980,100345,138556,62980
20050,2477,3231,34,2473,62980,100345,138556,62980
20050,2472,3239,49,2470,62980,100345,138556,62980
20050,2467,3230,40,2462,62980,100345,138556,62980
20050,2455,3248,52,2434,62980,100345,138556,62980
19683,2343,3224,41,1456,62980,100345,138556,62980
20050,833,52,53,34,62980,100345,138556,62980
20263,33,61,44,33,62980,100345,138556,62980
19897,33,37,51,33,62980,100345,138556,62980
19897,37,51,43,34,62980,100345,138556,62980
20019,34,24,51,32,62980,100345,138556,62980
19897,33,39,36,34,62980,100345,138556,62980
20263,32,29,48,35,62980,100345,138556,62980
19897,32,50,42,36,62980,100345,138556,62980
20019,33,52,38,32,62980,100345,138556,62980
19897,34,18,41,30,62980,100345,138556,62980
19897,35,42,43,34,62980,100345,138556,62980
20263,32,22,42,35,62980,100345,138556,62980
20019,33,55,39,35,62980,100345,138556,62980
19897,36,36,48,32,62980,100345,138556,62980
19897,34,56,40,34,62980,100345,138556,62980
20263,33,22,37,33,62980,100345,138556,62980
19897,35,46,35,34,62980,100345,138556,62980
19897,34,18,40,35,62980,100345,138556,62980
19897,37,40,40,33,62980,100345,138556,62980
20263,35,25,36,35,62980,100345,138556,62980
19897,35,39,48,36,62980,100345,138556,62980
19897,35,23,43,32,62980,100345,138556,62980
20019,33,33,31,35,62980,100345,138556,62980
20263,36,26,38,34,62980,100345,138556,62980
19897,35,34,25,35,62980,100345,138556,62980
19897,34,21,47,37,62980,100345,138556,62980
19897,33,38,32,34,62980,100345,138556,62980
20263,34,24,46,34,62980,100345,138556,62980
19897,35,47,36,33,62980,100345,138556,62980
19897,36,44,48,36,62980,100345,138556,62980
20263,32,45,40,37,62980,100345,138556,62980
19897,35,34,47,33,62980,100345,138556,62980
19897,32,36,40,34,62980,100345,138556,62980
19897,34,31,39,33,62980,100345,138556,62980
20263,34,26,42,34,62980,100345,138556,62980
19897,35,30,37,35,62980,100345,138556,62980
19897,35,24,47,37,62980,100345,138556,62980
19897,32,35,39,34,62980,100345,138556,62980
20263,36,29,44,35,62980,100345,138556,62980
20019,34,22,45,35,62980,100345,138556,62980
19897,33,47,32,33,62980,100345,138556,62980
19897,35,25,37,34,62980,100345,138556,62980
20263,35,40,39,36,62980,100345,138556,62980
20019,35,29,47,33,62980,100345,138556,62980
19897,34,43,35,34,62980,100345,138556,62980
19897,33,35,54,34,62980,100345,138556,62980
19897,37,49,35,35,62980,100345,138556,62980
20263,35,25,54,32,62980,100345,138556,62980
20019,37,25,36,34,62980,100345,138556,62980
19897,34,32,44,33,62980,100345,138556,62980
19897,34,36,39,34,62980,100345,138556,62980
19897,36,40,48,34,62980,100345,138556,62980
20263,35,37,35,34,62980,100345,138556,62980
19897,33,35,44,35,62980,100345,138556,62980
19897,35,39,28,35,62980,100345,138556,62980
20263,34,24,37,35,62980,100345,138556,62980
19897,34,35,23,35,62980,100345,138556,62980
20019,34,36,41,34,62980,100345,138556,62980
19897,33,34,45,33,62980,100345,138556,62980
19897,35,40,44,36,62980,100345,138556,62980
20263,34,33,44,36,62980,100345,138556,62980
19897,34,35,42,33,62980,100345,138556,62980
20019,35,22,44,35,62980,100345,138556,62980
19897,31,45,29,34,62980,100345,138556,62980
20263,31,24,46,34,62980,100345,138556,62980
19897,33,55,32,34,62980,100345,138556,62980
20019,34,31,33,36,62980,100345,138556,62980
19897,40,30,33,34,62980,100345,138556,62980
19897,34,27,43,35,62980,100345,138556,62980
20263,36,33,38,36,62980,100345,138556,62980
20019,36,53,37,36,62980,100345,138556,62980
19897,36,35,43,33,62980,100345,138556,62980
19897,35,49,32,37,62980,100345,138556,62980
19897,34,22,36,35,62980,100345,138556,62980
20263,35,38,33,34,62980,100345,138556,62980
19897,34,20,35,34,62980,100345,138556,62980
19897,33,35,36,37,62980,100345,138556,62980
20263,35,25,38,34,62980,100345,138556,62980
19897,37,36,44,33,62980,100345,138556,62980
19897,35,35,33,34,62980,100345,138556,62980
20019,35,42,30,32,62980,100345,138556,62980
19897,34,26,45,36,62980,100345,138556,62980
20263,35,38,35,34,62980,100345,138556,62980
19897,35,20,48,34,62980,100345,138556,62980
20019,33,35,34,32,62980,100345,138556,62980
19897,38,37,43,34,62980,100345,138556,62980
19897,36,39,28,35,62980,100345,138556,62980
20263,34,26,43,36,62980,100345,138556,62980
20019,33,25,46,34,62980,100345,138556,62980
19897,34,47,36,33,62980,100345,138556,62980
19897,38,44,48,37,62980,100345,138556,62980
20263,35,43,37,34,62980,100345,138556,62980
19897,34,37,44,35,62980,100345,138556,62980
20019,36,37,24,35,62980,100345,138556,62980
19897,33,23,44,34,62980,100345,138556,62980
19897,36,37,28,35,62980,100345,138556,62980
20263,36,26,47,35,62980,100345,138556,62980
20019,34,25,36,36,62980,100345,138556,62980
19897,33,47,34,33,62980,100345,138556,62980
19897,36,23,36,34,62980,100345,138556,62980
19897,37,40,39,35,62980,100345,138556,62980
20263,37,23,36,35,62980,100345,138556,62980
19897,37,34,43,38,62980,100345,138556,62980
19897,33,40,39,35,62980,100345,138556,62980
20263,34,30,53,35,62980,100345,138556,62980
19897,34,44,35,35,62980,100345,138556,62980
19897,36,37,53,34,62980,100345,138556,62980
20019,37,23,33,33,62980,100345,138556,62980
19897,34,40,38,34,62980,100345,138556,62980
20263,34,25,33,34,62980,100345,138556,62980
19897,33,35,44,36,62980,100345,138556,62980
20019,35,34,44,36,62980,100345,138556,62980
20050,36,27,43,26,114915,150024,173430,115291
19897,29,46,33,30,114915,150024,173430,115291
19897,45,27,33,32,114915,150024,173430,115291
20263,46,49,32,38,114915,150024,173430,115291
20019,24,29,33,38,114915,150024,173430,115291
19897,27,46,32,33,114915,150024,173430,115291
19897,31,31,33,30,114915,150024,173430,115291
19897,31,47,33,41,114915,150024,173430,115291
20263,37,27,32,30,114915,150024,173430,115291
19897,32,47,31,40,114915,150024,173430,115291
19897,44,29,32,33,114915,150024,173430,115291
20263,40,45,33,38,114915,150024,173430,115291
19897,36,28,32,38,114915,150024,173430,115291
19897,32,40,32,43,114915,150024,173430,115291
19897,30,28,34,31,114915,150024,173430,115291
20263,24,39,34,36,114915,150024,173430,115291
19897,30,33,33,26,114915,150024,173430,115291
19897,28,41,32,30,114915,150024,173430,115291
19897,37,36,34,30,114915,150024,173430,115291
20263,37,36,34,38,114915,150024,173430,115291
19897,45,40,34,30,114915,150024,173430,115291
19897,31,40,33,46,114915,150024,173430,115291
20263,37,38,34,38,114915,150024,173430,115291
19897,25,32,31,38,114915,150024,173430,115291
19897,30,41,33,30,114915,150024,173430,115291
19897,24,29,32,30,114915,150024,173430,115291
20263,33,46,33,26,114915,150024,173430,115291
20019,38,36,34,36,114915,150024,173430,115291
19897,43,37,34,42,114915,150024,173430,115291
19897,33,36,32,43,114915,150024,173430,115291
20263,36,36,32,46,114915,150024,173430,115291
19897,25,31,33,36,114915,150024,173430,115291
19897,30,40,31,32,114915,150024,173430,115291
19897,30,29,32,30,114915,150024,173430,115291
20263,26,46,32,26,114915,150024,173430,115291
19897,29,32,31,31,114915,150024,173430,115291
20019,46,33,35,38,114915,150024,173430,115291
19897,30,40,32,45,114915,150024,173430,115291
20263,36,28,31,38,114915,150024,173430,115291
19897,32,40,35,35,114915,150024,173430,115291
19897,29,29,32,31,114915,150024,173430,115291
19897,40,38,33,30,114915,150024,173430,115291
20263,36,43,34,26,114915,150024,173430,115291
19897,40,42,34,36,114915,150024,173430,115291
19897,45,46,32,29,114915,150024,173430,115291
19897,48,28,33,47,114915,150024,173430,115291
20263,38,45,32,41,114915,150024,173430,115291
19897,42,31,37,45,114915,150024,173430,115291
19897,32,43,36,38,114915,150024,173430,115291
20263,37,27,34,48,114915,150024,173430,115291
19897,28,37,33,34,114915,150024,173430,115291
19897,30,28,32,42,114915,150024,173430,115291
19897,27,35,33,32,114915,150024,173430,115291
20263,38,39,35,35,114915,150024,173430,115291
19897,31,39,34,31,114915,150024,173430,115291
19897,44,35,31,42,114915,150024,173430,115291
20263,37,40,31,38,114915,150024,173430,115291
19897,38,38,33,38,114915,150024,173430,115291
19897,32,32,32,44,114915,150024,173430,115291
19897,37,36,32,32,114915,150024,173430,115291
20263,27,30,34,37,114915,150024,173430,115291
19897,30,39,34,30,114915,150024,173430,115291
19897,32,28,33,32,114915,150024,173430,115291
20263,26,48,33,25,114915,150024,173430,115291
19897,38,32,32,27,114915,150024,173430,115291
19897,32,48,33,31,114915,150024,173430,115291
19897,38,28,31,33,114915,150024,173430,115291
20263,39,48,34,40,114915,150024,173430,115291
19897,45,30,32,32,114915,150024,173430,115291
19897,32,48,32,43,114915,150024,173430,115291
20263,37,27,33,39,114915,150024,173430,115291
19897,26,40,35,38,114915,150024,173430,115291
19897,30,32,32,28,114915,150024,173430,115291
19897,30,39,35,31,114915,150024,173430,115291
20263,38,38,35,25,114915,150024,173430,115291
19897,41,41,32,30,114915,150024,173430,115291
19897,49,40,32,28,114915,150024,173430,115291
20263,49,39,33,38,114915,150024,173430,115291
19897,48,45,32,40,114915,150024,173430,115291
19897,44,38,34,48,114915,150024,173430,115291
19897,42,42,34,31,114915,150024,173430,115291
20263,36,25,34,38,114915,150024,173430,115291
19897,46,39,32,31,114915,150024,173430,115291
19897,31,25,33,38,114915,150024,173430,115291
20263,27,40,33,36,114915,150024,173430,115291
19897,40,31,30,36,114915,150024,173430,115291
19897,35,39,33,31,114915,150024,173430,115291
19897,47,40,32,43,114915,150024,173430,115291
20263,40,41,32,39,114915,150024,173430,115291
19897,45,38,35,44,114915,150024,173430,115291
19897,30,39,33,47,114915,150024,173430,115291
20263,39,34,34,48,114915,150024,173430,115291
19897,25,34,31,38,114915,150024,173430,115291
19897,32,39,32,32,114915,150024,173430,115291
19897,32,31,34,32,114915,150024,173430,115291
20019,44,28,34,32,114915,150024,173430,115291
20263,40,45,30,41,114915,150024,173430,115291
19897,46,32,30,38,114915,150024,173430,115291
19897,31,39,33,48,114915,150024,173430,115291
20263,39,28,33,38,114915,150024,173430,115291
19897,36,41,36,38,114915,150024,173430,115291
19897,32,34,33,29,114915,150024,173430,115291
19897,41,37,33,30,114915,150024,173430,115291
20263,40,46,30,26,114915,150024,173430,115291
19897,47,38,32,38,114915,150024,173430,115291
19897,47,44,34,30,114915,150024,173430,115291
19897,49,32,33,45,114915,150024,173430,115291
20263,41,46,32,48,114915,150024,173430,115291
19897,41,30,32,46,114915,150024,173430,115291
19897,32,43,33,43,114915,150024,173430,115291
20263,35,28,34,48,114915,150024,173430,115291
19897,26,39,33,34,114915,150024,173430,115291
19897,31,31,33,41,114915,150024,173430,115291
19897,27,36,36,32,114915,150024,173430,115291
20263,39,38,33,35,114915,150024,173430,115291
19897,31,41,33,31,114915,150024,173430,115291
19897,46,37,33,43,114915,150024,173430,115291
20263,39,37,34,38,114915,150024,173430,115291
19897,36,38,31,39,114915,150024,173430,115291
19897,30,33,31,48,114915,150024,173430,115291
19897,39,37,33,33,114915,150024,173430,115291
20263,28,31,34,39,114915,150024,173430,115291
19897,31,40,32,33,114915,150024,173430,115291
19897,31,29,31,31,114915,150024,173430,115291
20263,28,52,33,25,114915,150024,173430,115291
19897,40,35,34,27,114915,150024,173430,115291
19897,33,49,31,30,114915,150024,173430,115291
19897,44,32,32,33,114915,150024,173430,115291
20263,38,46,30,39,114915,150024,173430,115291
19897,46,31,31,32,114915,150024,173430,115291
19897,30,48,33,46,114915,150024,173430,115291
20263,37,27,34,40,114915,150024,173430,115291
19897,26,40,33,38,114915,150024,173430,115291
19897,32,33,31,32,114915,150024,173430,115291
19897,32,41,34,32,114915,150024,173430,115291
20263,40,40,36,25,114915,150024,173430,115291
19897,42,40,31,31,114915,150024,173430,115291
19897,46,40,35,31,114915,150024,173430,115291
20263,47,38,33,39,114915,150024,173430,115291
19897,50,44,35,40,114915,150024,173430,115291
19897,42,37,34,46,114915,150024,173430,115291
19897,44,46,32,30,114915,150024,173430,115291
20263,38,26,31,39,114915,150024,173430,115291
19897,44,38,31,29,114915,150024,173430,115291
19897,31,25,32,43,114915,150024,173430,115291
20263,26,40,32,33,114915,150024,173430,115291
19897,39,29,32,35,114915,150024,173430,115291
19897,33,41,35,32,114915,150024,173430,115291
19897,49,38,36,45,114915,150024,173430,115291
20263,40,38,33,42,114915,150024,173430,115291
20050,26,32,33,34,184475,184616,182548,184663
19897,32,30,32,32,184475,184616,182548,184663
19897,35,33,34,30,184475,184616,182548,184663
19897,31,34,33,32,184475,184616,182548,184663
20263,34,34,32,30,184475,184616,182548,184663
19897,31,32,33,35,184475,184616,182548,184663
19897,34,34,33,30,184475,184616,182548,184663
20263,31,33,31,31,184475,184616,182548,184663
19897,34,31,34,35,184475,184616,182548,184663
19897,149,34,32,32,184475,184616,182548,184663
19897,34,33,32,31,184475,184616,182548,184663
20263,34,30,33,36,184475,184616,182548,184663
19897,35,31,29,35,184475,184616,182548,184663
19897,34,34,31,33,184475,184616,182548,184663
20263,32,31,32,33,184475,184616,182548,184663
19897,35,31,32,31,184475,184616,182548,184663
19897,37,32,32,35,184475,184616,182548,184663
19897,36,33,33,35,184475,184616,182548,184663
20263,32,32,32,32,184475,184616,182548,184663
19897,35,31,34,34,184475,184616,182548,184663
19897,30,32,33,35,184475,184616,182548,184663
20263,137,30,32,38,184475,184616,182548,184663
19897,75,32,32,33,184475,184616,182548,184663
19897,32,34,34,35,184475,184616,182548,184663
19897,32,31,34,544,184475,184616,182548,184663
20263,224,36,33,412,184475,184616,182548,184663
20050,826,33,32,32,184475,184616,182548,184663
19897,29,29,34,33,184475,184616,182548,184663
19897,282,34,34,991,184475,184616,182548,184663
20050,1729,117,33,1266,184475,184616,182548,184663
20050,534,35,32,32,184475,184616,182548,184663
19897,33,33,33,435,184475,184616,182548,184663
19897,36,33,32,36,184475,184616,182548,184663
20263,37,28,32,33,184475,184616,182548,184663
19897,33,34,31,34,184475,184616,182548,184663
19897,34,33,31,33,184475,184616,182548,184663
20263,34,32,32,34,184475,184616,182548,184663
19897,34,29,31,34,184475,184616,182548,184663
19897,35,32,33,31,184475,184616,182548,184663
19897,34,31,31,32,184475,184616,182548,184663
20263,33,32,32,31,184475,184616,182548,184663
19897,35,35,33,423,184475,184616,182548,184663
19897,67,33,34,320,184475,184616,182548,184663
20263,78,30,33,31,184475,184616,182548,184663
19897,30,32,32,33,184475,184616,182548,184663
19897,35,30,32,32,184475,184616,182548,184663
19897,37,29,33,34,184475,184616,182548,184663
20263,33,32,30,34,184475,184616,182548,184663
19897,33,33,31,31,184475,184616,182548,184663
19897,32,32,31,28,184475,184616,182548,184663
20263,72,32,34,35,184475,184616,182548,184663
19897,189,34,33,115,184475,184616,182548,184663
20050,33,32,28,33,184475,184616,182548,184663
19897,30,32,33,34,184475,184616,182548,184663
19897,34,34,31,237,184475,184616,182548,184663
20263,36,34,29,33,184475,184616,182548,184663
19897,33,31,35,33,184475,184616,182548,184663
19897,34,32,31,32,184475,184616,182548,184663
19897,35,31,32,33,184475,184616,182548,184663
20263,33,33,32,31,184475,184616,182548,184663
19897,31,34,31,32,184475,184616,182548,184663
19897,30,33,36,34,184475,184616,182548,184663
20263,31,33,33,33,184475,184616,182548,184663
19897,32,31,32,33,184475,184616,182548,184663
19897,32,32,36,35,184475,184616,182548,184663
19897,34,32,33,34,184475,184616,182548,184663
20263,32,33,30,33,184475,184616,182548,184663
19897,34,34,31,80,184475,184616,182548,184663
19897,124,33,35,31,184475,184616,182548,184663
20263,32,31,34,33,184475,184616,182548,184663
19897,29,30,30,32,184475,184616,182548,184663
19897,35,31,31,34,184475,184616,182548,184663
19897,33,33,34,31,184475,184616,182548,184663
20263,31,34,30,32,184475,184616,182548,184663
19897,33,32,33,30,184475,184616,182548,184663
19897,34,33,36,31,184475,184616,182548,184663
19897,120,32,29,32,184475,184616,182548,184663
20263,32,35,34,33,184475,184616,182548,184663
19897,30,32,31,35,184475,184616,182548,184663
19897,32,30,34,35,184475,184616,182548,184663
20263,33,31,33,36,184475,184616,182548,184663
19897,33,32,34,32,184475,184616,182548,184663
19897,33,31,33,33,184475,184616,182548,184663
19897,37,30,32,33,184475,184616,182548,184663
20263,34,31,33,35,184475,184616,182548,184663
19897,34,31,36,34,184475,184616,182548,184663
19897,34,34,33,34,184475,184616,182548,184663
20263,32,31,34,33,184475,184616,182548,184663
19897,33,32,33,35,184475,184616,182548,184663
19897,32,32,33,156,184475,184616,182548,184663
19897,35,32,33,33,184475,184616,182548,184663
20263,33,29,31,33,184475,184616,182548,184663
19897,34,31,33,653,184475,184616,182548,184663
19897,1263,36,34,522,184475,184616,182548,184663
20050,571,33,32,32,184475,184616,182548,184663
19897,34,32,32,33,184475,184616,182548,184663
20263,1018,98,34,1679,184475,184616,182548,184663
20050,995,239,33,355,184475,184616,182548,184663
19683,35,32,32,31,184475,184616,182548,184663
20263,32,35,32,639,184475,184616,182548,184663
19897,443,33,31,93,184475,184616,182548,184663
19897,408,32,33,253,184475,184616,182548,184663
20050,34,35,32,35,184475,184616,182548,184663
19897,48,32,31,36,184475,184616,182548,184663
20263,37,33,33,445,184475,184616,182548,184663
19897,449,34,35,903,184475,184616,182548,184663
20050,2014,133,90,1368,184475,184616,182548,184663
20050,751,32,34,34,184475,184616,182548,184663
19897,36,32,35,1018,184475,184616,182548,184663
20050,1655,1062,78,2898,184475,184616,182548,184663
20050,2272,644,106,927,184475,184616,182548,184663
20050,886,34,33,121,184475,184616,182548,184663
20050,127,33,33,879,184475,184616,182548,184663
19683,1663,38,143,2195,184475,184616,182548,184663
20050,2856,1134,142,2023,184475,184616,182548,184663
20080,1331,672,33,32,184475,184616,182548,184663
20050,312,32,31,1055,184475,184616,182548,184663
20050,941,452,179,2775,184475,184616,182548,184663
20050,3055,1122,1451,2195,184475,184616,182548,184663
19714,1984,703,188,699,184475,184616,182548,184663
20050,37,34,266,1362,184475,184616,182548,184663
20050,2484,2002,3041,3281,184475,184616,182548,184663
20080,3280,3243,3239,3282,184475,184616,182548,184663
20080,3283,1882,1423,3280,184475,184616,182548,184663
20080,3280,1057,1264,3283,184475,184616,182548,184663
19714,3283,3242,3238,3280,184475,184616,182548,184663
20080,3283,3244,3238,3281,184475,184616,182548,184663
20080,3284,3242,3239,3281,184475,184616,182548,184663
20080,3280,3240,3238,3285,184475,184616,182548,184663
19714,3279,3244,3237,3279,184475,184616,182548,184663
20080,3280,3242,3237,3280,184475,184616,182548,184663
20080,3280,1312,2832,3279,184475,184616,182548,184663
20080,3281,33,31,3282,184475,184616,182548,184663
20050,3283,31,35,3279,184475,184616,182548,184663
20050,3280,32,33,3280,184475,184616,182548,184663
19683,3281,34,31,3282,184475,184616,182548,184663
20050,3279,35,33,3281,184475,184616,182548,184663
20050,3285,33,34,3280,184475,184616,182548,184663
20050,3280,34,33,3283,184475,184616,182548,184663
20050,3281,32,30,3286,184475,184616,182548,184663
20050,3284,33,33,3283,184475,184616,182548,184663
20050,3285,290,3240,3283,184475,184616,182548,184663
19714,3281,3246,3239,3283,184475,184616,182548,184663
20080,3283,3243,3238,3284,184475,184616,182548,184663
20080,3284,3247,3239,3280,184475,184616,182548,184663
20080,3282,3243,3240,3279,184475,184616,182548,184663
20080,3282,3247,3238,3283,184475,184616,182548,184663
19714,3280,3243,3238,3282,184475,184616,182548,184663
20080,3283,3243,3239,3282,184475,184616,182548,184663
20080,3280,3241,3237,3283,184475,184616,182548,184663
20111,3282,3241,3238,3285,181138,190209,187765,180715
19714,3279,3247,3238,3282,181138,190209,187765,180715
20080,3279,3241,3235,3279,181138,190209,187765,180715
20080,3281,33,3238,3282,181138,190209,187765,180715
20050,3281,34,32,3279,181138,190209,187765,180715
20050,3281,33,32,3280,181138,190209,187765,180715
20050,3277,32,36,3281,181138,190209,187765,180715
19683,3282,35,35,3280,181138,190209,187765,180715
20050,3285,33,35,3281,181138,190209,187765,180715
20050,3285,34,33,3279,181138,190209,187765,180715
20050,3281,35,35,3281,181138,190209,187765,180715
20050,3283,34,36,3283,181138,190209,187765,180715
20050,3284,35,33,3283,181138,190209,187765,180715
20050,3284,37,33,3283,181138,190209,187765,180715
19683,3279,32,33,3278,181138,190209,187765,180715
20050,3281,33,33,3277,181138,190209,187765,180715
20050,3279,32,35,3283,181138,190209,187765,180715
20050,3281,34,32,3283,181138,190209,187765,180715
20050,3281,36,36,3283,181138,190209,187765,180715
20050,3278,34,33,3281,181138,190209,187765,180715
20050,3282,36,33,3281,181138,190209,187765,180715
20050,3278,34,35,3284,181138,190209,187765,180715
19683,3280,37,34,3282,181138,190209,187765,180715
20050,3283,33,34,3281,181138,190209,187765,180715
20050,3282,34,36,3281,181138,190209,187765,180715
20050,3278,35,34,3282,181138,190209,187765,180715
20050,3282,35,35,3284,181138,190209,187765,180715
20050,3280,33,36,3283,181138,190209,187765,180715
20050,3280,34,34,3283,181138,190209,187765,180715
19683,3281,32,34,3282,181138,190209,187765,180715
20050,3281,36,33,3284,181138,190209,187765,180715
20050,3281,35,34,3284,181138,190209,187765,180715
20050,3284,35,35,3286,181138,190209,187765,180715
20050,3278,33,35,3283,181138,190209,187765,180715
20050,3284,32,35,3285,181138,190209,187765,180715
20050,3283,33,36,3282,181138,190209,187765,180715
20050,3282,35,35,3282,181138,190209,187765,180715
19683,3281,33,33,3280,181138,190209,187765,180715
20050,3284,35,33,3280,181138,190209,187765,180715
20050,3281,35,34,3283,181138,190209,187765,180715
20050,3285,37,34,3283,181138,190209,187765,180715
20050,3284,32,35,3280,181138,190209,187765,180715
20050,3281,34,35,3283,181138,190209,187765,180715
20050,3286,37,34,3282,181138,190209,187765,180715
20050,3284,35,34,3281,181138,190209,187765,180715
19683,3279,33,35,3285,181138,190209,187765,180715
20050,3281,33,35,3284,181138,190209,187765,180715
20050,3281,34,33,3277,181138,190209,187765,180715
20050,3279,33,35,3282,181138,190209,187765,180715
20050,3279,33,36,3279,181138,190209,187765,180715
20050,3282,37,38,3282,181138,190209,187765,180715
20050,3281,3244,1998,3283,181138,190209,187765,180715
19714,3284,3246,3239,3281,181138,190209,187765,180715
20080,3281,3244,3237,3283,181138,190209,187765,180715
20080,3285,3244,3236,3284,181138,190209,187765,180715
20080,3281,3243,3237,3281,181138,190209,187765,180715
19714,3280,3243,3237,3281,181138,190209,187765,180715
20080,3277,3244,3241,3284,181138,190209,187765,180715
20080,3279,3244,3240,3282,181138,190209,187765,180715
20080,3281,3244,3236,3282,181138,190209,187765,180715
20080,3281,3241,3238,3281,181138,190209,187765,180715
19714,3281,3243,3239,3281,181138,190209,187765,180715
20080,3283,3241,3238,3281,181138,190209,187765,180715
20080,3283,3243,3238,3284,181138,190209,187765,180715
20080,3283,3243,3238,3283,181138,190209,187765,180715
20080,3283,3244,3241,3281,181138,190209,187765,180715
19714,3282,3244,3238,3280,181138,190209,187765,180715
20080,3281,3242,3238,3282,181138,190209,187765,180715
20080,3278,3242,3237,3281,181138,190209,187765,180715
20080,3281,3245,3237,3282,181138,190209,187765,180715
19714,3282,3245,3238,3280,181138,190209,187765,180715
20080,3285,3243,3240,3283,181138,190209,187765,180715
20080,3278,3242,3242,3283,181138,190209,187765,180715
20080,3279,3243,3236,3282,181138,190209,187765,180715
20080,3280,3243,3240,3279,181138,190209,187765,180715
19714,3280,3247,3240,3285,181138,190209,187765,180715
20080,3286,3245,3236,3287,181138,190209,187765,180715
20080,3281,3243,3238,3283,181138,190209,187765,180715
20080,3282,3244,3237,3281,181138,190209,187765,180715
20080,3283,3244,3237,3283,181138,190209,187765,180715
19714,3280,3244,3241,3284,181138,190209,187765,180715
20080,3283,3243,3241,3282,181138,190209,187765,180715
20080,3283,3244,3239,3282,181138,190209,187765,180715
20080,3284,3243,3239,3283,181138,190209,187765,180715
19714,3282,3243,3238,3281,181138,190209,187765,180715
20080,3281,3243,3239,3283,181138,190209,187765,180715
20080,3282,3244,3236,3283,181138,190209,187765,180715
20080,3280,3243,3237,3281,181138,190209,187765,180715
20080,3280,3241,3241,3280,181138,190209,187765,180715
19714,3282,3242,3239,3284,181138,190209,187765,180715
20080,3285,3245,3238,3284,181138,190209,187765,180715
20080,3283,3241,3241,3283,181138,190209,187765,180715
20080,3281,3243,3239,3280,181138,190209,187765,180715
20080,3281,3243,3239,3282,181138,190209,187765,180715
19714,3279,3243,3240,3283,181138,190209,187765,180715
20080,3282,3242,3241,3283,181138,190209,187765,180715
20080,3284,3242,3238,3281,181138,190209,187765,180715
20080,3278,3243,3240,3282,181138,190209,187765,180715
19714,3281,3242,3239,3282,181138,190209,187765,180715
20080,3284,3243,3240,3284,181138,190209,187765,180715
20080,3283,3241,3240,3285,181138,190209,187765,180715
20080,3282,3247,3239,3282,181138,190209,187765,180715
20080,3279,3240,3239,3284,181138,190209,187765,180715
19714,3279,3244,3239,3282,181138,190209,187765,180715
20080,3283,3244,3237,3282,181138,190209,187765,180715
20080,3283,3245,3238,3280,181138,190209,187765,180715
20080,3281,3244,3238,3282,181138,190209,187765,180715
19714,3284,3242,3237,3282,181138,190209,187765,180715
20080,3283,3246,3241,3281,181138,190209,187765,180715
20080,3283,3243,3241,3287,181138,190209,187765,180715
20080,3283,3244,3243,3284,181138,190209,187765,180715
20080,3282,3244,3240,3278,181138,190209,187765,180715
19714,3284,3239,3239,3279,181138,190209,187765,180715
20080,3282,3244,3237,3281,181138,190209,187765,180715
20080,3282,3242,3240,3283,181138,190209,187765,180715
20080,3283,3244,3238,3283,181138,190209,187765,180715
20080,3282,3247,3240,3280,181138,190209,187765,180715
19714,3281,3245,3239,3284,181138,190209,187765,180715
20080,3280,3246,3239,3282,181138,190209,187765,180715
20080,3280,3246,3239,3281,181138,190209,187765,180715
20080,3279,3242,3240,3281,181138,190209,187765,180715
19714,3283,3244,3239,3284,181138,190209,187765,180715
20080,3278,3245,3242,3285,181138,190209,187765,180715
20080,3281,3243,3242,3284,181138,190209,187765,180715
20080,3282,3242,3240,3283,181138,190209,187765,180715
20080,3284,3243,3240,3284,181138,190209,187765,180715
19714,3284,3246,3239,3284,181138,190209,187765,180715
20080,3280,3243,3240,3285,181138,190209,187765,180715
20080,3280,3246,3242,3283,181138,190209,187765,180715
20080,3282,3243,3239,3283,181138,190209,187765,180715
20080,3283,3245,3241,3280,181138,190209,187765,180715
19714,3279,3242,3239,3281,181138,190209,187765,180715
20080,3281,3246,3237,3284,181138,190209,187765,180715
20080,3283,3248,3238,3282,181138,190209,187765,180715
20080,3285,3245,3242,3286,181138,190209,187765,180715
19714,3280,3246,3240,3287,181138,190209,187765,180715
20080,3282,3244,3240,3283,181138,190209,187765,180715
20080,3282,3246,3238,3282,181138,190209,187765,180715
20080,3284,3245,3240,3283,181138,190209,187765,180715
20080,3280,3243,3241,3286,181138,190209,187765,180715
19714,3284,3246,3238,3284,181138,190209,187765,180715
20080,3281,3244,3237,3282,181138,190209,187765,180715
20080,3282,3244,3240,3284,181138,190209,187765,180715
20080,3283,3250,3240,3284,181138,190209,187765,180715
19714,3284,3243,3240,3279,181138,190209,187765,180715
20080,3280,3244,3237,3281,181138,190209,187765,180715
20080,3281,3244,3240,3282,181138,190209,187765,180715
20080,3282,3245,3238,3281,181138,190209,187765,180715
20080,3281,3245,3240,3284,181138,190209,187765,180715
19714,3282,3239,3239,3282,181138,190209,187765,180715
20080,3282,3245,3238,3283,181138,190209,187765,180715
20111,3283,3244,3239,3274,119098,183065,190021,118534
20080,3262,3244,3239,3275,119098,183065,190021,118534
19714,3270,3243,3238,3269,119098,183065,190021,118534
20080,3260,3246,3238,3270,119098,183065,190021,118534
20080,3269,3242,3242,3270,119098,183065,190021,118534
20080,3266,3244,3241,3267,119098,183065,190021,118534
20080,3261,3246,3237,3270,119098,183065,190021,118534
19714,3274,3246,3238,3273,119098,183065,190021,118534
20080,3257,3245,3238,3267,119098,183065,190021,118534
20080,3276,3246,3237,3274,119098,183065,190021,118534
20080,3268,3247,3238,3257,119098,183065,190021,118534
20080,3282,3242,3239,3278,119098,183065,190021,118534
19714,3271,3245,3237,3264,119098,183065,190021,118534
20080,3268,3246,3240,3266,119098,183065,190021,118534
20080,3275,3244,3242,3268,119098,183065,190021,118534
20080,3262,3244,3240,3269,119098,183065,190021,118534
19714,3271,3245,3241,3270,119098,183065,190021,118534
20080,3263,3244,3239,3260,119098,183065,190021,118534
20080,3270,3246,3241,3270,119098,183065,190021,118534
20080,3271,3245,3236,3266,119098,183065,190021,118534
20080,3264,3244,3237,3264,119098,183065,190021,118534
19714,3265,3243,3237,3271,119098,183065,190021,118534
20080,3271,3242,3241,3261,119098,183065,190021,118534
20080,3264,3245,3240,3264,119098,183065,190021,118534
20080,3276,3243,3243,3265,119098,183065,190021,118534
19714,3258,3245,3241,3257,119098,183065,190021,118534
20080,3270,3246,3241,3269,119098,183065,190021,118534
20080,3266,3248,3241,3262,119098,183065,190021,118534
20080,3266,3245,3240,3272,119098,183065,190021,118534
20080,3268,3244,3239,3260,119098,183065,190021,118534
19714,3261,3246,3238,3270,119098,183065,190021,118534
20080,3271,3246,3241,3262,119098,183065,190021,118534
20080,3264,3245,3239,3279,119098,183065,190021,118534
20080,3266,3246,3240,3264,119098,183065,190021,118534
20080,3265,3246,3241,3272,119098,183065,190021,118534
19714,3261,3245,3239,3264,119098,183065,190021,118534
20080,3272,3245,3237,3276,119098,183065,190021,118534
20080,3264,3243,3237,3266,119098,183065,190021,118534
20080,3265,3247,3241,3271,119098,183065,190021,118534
19714,3264,3246,3241,3272,119098,183065,190021,118534
20080,3258,3244,3239,3268,119098,183065,190021,118534
20080,3274,3243,3240,3273,119098,183065,190021,118534
20080,3259,3246,3241,3261,119098,183065,190021,118534
20080,3276,3242,3239,3277,119098,183065,190021,118534
19714,3259,3248,3240,3263,119098,183065,190021,118534
20080,3275,3245,3241,3274,119098,183065,190021,118534
20080,3269,3243,3240,3269,119098,183065,190021,118534
20080,3273,3242,3241,3265,119098,183065,190021,118534
20080,3274,3241,3240,3269,119098,183065,190021,118534
19714,3268,3244,3237,3267,119098,183065,190021,118534
20080,3271,3248,3239,3272,119098,183065,190021,118534
20080,3271,3245,3240,3265,119098,183065,190021,118534
20080,3264,3243,3239,3267,119098,183065,190021,118534
19714,3267,3247,3240,3270,119098,183065,190021,118534
20080,3271,3243,3240,3260,119098,183065,190021,118534
20080,3270,3246,3237,3269,119098,183065,190021,118534
20080,3275,3245,3240,3266,119098,183065,190021,118534
20080,3260,3244,3237,3266,119098,183065,190021,118534
19714,3274,3248,3237,3268,119098,183065,190021,118534
20080,3267,3243,3240,3260,119098,183065,190021,118534
20080,3275,3246,3239,3276,119098,183065,190021,118534
20080,3272,3246,3241,3261,119098,183065,190021,118534
20080,3267,3245,3241,3275,119098,183065,190021,118534
19714,3272,3243,3243,3268,119098,183065,190021,118534
20080,3260,3242,3240,3269,119098,183065,190021,118534
20080,3267,3246,3240,3267,119098,183065,190021,118534
20080,3269,3247,3239,3268,119098,183065,190021,118534
19714,3258,3244,3240,3259,119098,183065,190021,118534
20080,3267,3243,3237,3278,119098,183065,190021,118534
20080,3260,3245,3237,3262,119098,183065,190021,118534
20080,3264,3243,3238,3282,119098,183065,190021,118534
20080,3265,3247,3242,3254,119098,183065,190021,118534
19714,3259,3244,3239,3279,119098,183065,190021,118534
20080,3270,3242,3244,3271,119098,183065,190021,118534
20080,3259,3245,3239,3264,119098,183065,190021,118534
20080,3273,3246,3241,3276,119098,183065,190021,118534
19714,3256,3244,3238,3267,119098,183065,190021,118534
20080,3273,3245,3242,3273,119098,183065,190021,118534
20080,3257,3241,3238,3268,119098,183065,190021,118534
20080,3263,3243,3237,3267,119098,183065,190021,118534
20080,3266,3241,3235,3267,119098,183065,190021,118534
19714,3276,3245,3239,3261,119098,183065,190021,118534
20080,3258,3242,3233,3274,119098,183065,190021,118534
20080,3277,3243,3235,3264,119098,183065,190021,118534
20080,3268,3245,3241,3265,119098,183065,190021,118534
20080,3281,3243,3241,3266,119098,183065,190021,118534
19714,3271,3242,3238,3262,119098,183065,190021,118534
20080,3265,3242,3239,3271,119098,183065,190021,118534
20080,3275,3243,3238,3263,119098,183065,190021,118534
20080,3262,3240,3236,3262,119098,183065,190021,118534
19714,3271,3241,3238,3267,119098,183065,190021,118534
20080,3264,3242,3241,3262,119098,183065,190021,118534
20080,3274,3247,3239,3269,119098,183065,190021,118534
20080,3271,3242,3232,3259,119098,183065,190021,118534
20080,3264,3243,3239,3272,119098,183065,190021,118534
19714,3270,3242,3237,3267,119098,183065,190021,118534
20080,3259,3243,3237,3268,119098,183065,190021,118534
20080,3266,3241,3238,3267,119098,183065,190021,118534
20080,3266,3240,3238,3263,119098,183065,190021,118534
20080,3265,3245,3235,3271,119098,183065,190021,118534
19714,3271,3239,3234,3270,119098,183065,190021,118534
20080,3262,3244,3238,3264,119098,183065,190021,118534
20080,3265,3244,3239,3277,119098,183065,190021,118534
20080,3264,3243,3240,3260,119098,183065,190021,118534
19714,3261,3246,3240,3272,119098,183065,190021,118534
20080,3276,3247,3241,3261,119098,183065,190021,118534
20080,3259,3243,3235,3281,119098,183065,190021,118534
20080,3273,3247,3240,3268,119098,183065,190021,118534
20080,3258,3247,3240,3270,119098,183065,190021,118534
19714,3272,3243,3241,3261,119098,183065,190021,118534
20080,3269,3243,3238,3281,119098,183065,190021,118534
20080,3264,3246,3240,3266,119098,183065,190021,118534
20080,3267,3242,3238,3271,119098,183065,190021,118534
19714,3266,3241,3238,3265,119098,183065,190021,118534
20080,3264,3244,3238,3271,119098,183065,190021,118534
20080,3275,3245,3239,3262,119098,183065,190021,118534
20080,3258,3245,3241,3267,119098,183065,190021,118534
20080,3280,3242,3235,3268,119098,183065,190021,118534
19714,3263,3243,3236,3264,119098,183065,190021,118534
20080,3277,3245,3241,3273,119098,183065,190021,118534
20080,3272,3244,3236,3262,119098,183065,190021,118534
20080,3274,3244,3237,3267,119098,183065,190021,118534
20080,3279,3246,3237,3267,119098,183065,190021,118534
19714,3271,3248,3241,3265,119098,183065,190021,118534
20080,3275,3248,3243,3271,119098,183065,190021,118534
20080,3275,3245,3239,3277,119098,183065,190021,118534
20080,3269,3244,3242,3268,119098,183065,190021,118534
19714,3271,3245,3238,3278,119098,183065,190021,118534
20080,3263,3244,3240,3273,119098,183065,190021,118534
20080,3272,3243,3236,3269,119098,183065,190021,118534
20080,3269,3245,3236,3269,119098,183065,190021,118534
20080,3270,3244,3240,3271,119098,183065,190021,118534
19714,3272,3241,3239,3272,119098,183065,190021,118534
20080,3264,3243,3235,3264,119098,183065,190021,118534
20080,3271,3241,3239,3277,119098,183065,190021,118534
20080,3267,3244,3238,3251,119098,183065,190021,118534
20080,3254,3244,3238,3271,119098,183065,190021,118534
19714,3263,3245,3239,3263,119098,183065,190021,118534
20080,3254,3244,3241,3263,119098,183065,190021,118534
20080,3238,3241,3234,3236,119098,183065,190021,118534
20080,3203,3248,3241,3208,119098,183065,190021,118534
19714,3186,3243,3240,3243,119098,183065,190021,118534
20080,3240,3245,3239,3261,119098,183065,190021,118534
20080,3238,3246,3242,3242,119098,183065,190021,118534
20080,3247,3241,3238,3261,119098,183065,190021,118534
20080,3240,3242,3238,3239,119098,183065,190021,118534
19714,3245,3247,3242,3248,119098,183065,190021,118534
20080,3250,3244,3241,3111,119098,183065,190021,118534
20080,2874,3245,3241,3006,119098,183065,190021,118534
20080,2795,3248,3239,3268,119098,183065,190021,118534
19744,3274,3242,3239,1324,62980,137710,159424,62980
20050,1313,3239,3235,1316,62980,137710,159424,62980
20050,1327,3232,3246,1339,62980,137710,159424,62980
20050,1321,3240,3245,1305,62980,137710,159424,62980
20050,1303,3238,3250,1297,62980,137710,159424,62980
20050,1302,3244,3246,1327,62980,137710,159424,62980
20050,1319,3263,3235,1318,62980,137710,159424,62980
19683,1326,3250,3226,1320,62980,137710,159424,62980
20050,1306,3255,3234,1301,62980,137710,159424,62980
20050,1296,3241,3234,1302,62980,137710,159424,62980
20050,1310,3243,3233,1354,62980,137710,159424,62980
19958,1344,3251,3250,1323,62980,137710,159424,62980
20050,1311,3242,3238,1281,62980,137710,159424,62980
19958,1272,3246,3236,1314,62980,137710,159424,62980
20050,1327,3243,3232,1341,62980,137710,159424,62980
19958,1347,3241,3245,1329,62980,137710,159424,62980
20050,1295,3251,3247,1273,62980,137710,159424,62980
20050,1288,3244,3237,1310,62980,137710,159424,62980
20050,1316,3250,3235,1330,62980,137710,159424,62980
20050,1324,3254,3218,1296,62980,137710,159424,62980
20050,1295,3250,3225,1309,62980,137710,159424,62980
19683,1292,3237,3236,1304,62980,137710,159424,62980
20050,1312,3226,3236,1300,62980,137710,159424,62980
20050,1291,3228,3246,1325,62980,137710,159424,62980
19958,1330,3263,3237,1310,62980,137710,159424,62980
20050,1298,3242,3222,1287,62980,137710,159424,62980
19958,1276,3232,3232,1295,62980,137710,159424,62980
20050,1316,3237,3244,1340,62980,137710,159424,62980
20050,1335,3237,3247,1327,62980,137710,159424,62980
20050,1315,3238,3244,1288,62980,137710,159424,62980
20050,1286,3249,3247,1319,62980,137710,159424,62980
20050,1319,3249,3234,1339,62980,137710,159424,62980
19683,1348,3250,3235,1330,62980,137710,159424,62980
20050,1306,3248,3237,1284,62980,137710,159424,62980
20050,1287,3245,3231,1313,62980,137710,159424,62980
19958,1315,3233,3248,1334,62980,137710,159424,62980
20050,1322,3237,3248,1329,62980,137710,159424,62980
19958,1328,3258,3225,1301,62980,137710,159424,62980
20050,1279,3239,3217,1295,62980,137710,159424,62980
19958,1303,3235,3244,1330,62980,137710,159424,62980
20050,1330,3247,3250,1335,62980,137710,159424,62980
20050,1315,3248,3239,1292,62980,137710,159424,62980
20050,1301,3264,3239,1307,62980,137710,159424,62980
20050,1299,3249,3219,1319,62980,137710,159424,62980
20050,1325,3249,3232,1326,62980,137710,159424,62980
19683,1326,3236,3237,1323,62980,137710,159424,62980
20050,1301,3238,3235,1298,62980,137710,159424,62980
20050,1306,3228,3233,1306,62980,137710,159424,62980
19958,1291,3249,3249,1318,62980,137710,159424,62980
20050,1331,3237,3233,1337,62980,137710,159424,62980
19958,1328,3237,3225,1295,62980,137710,159424,62980
20050,1265,3237,3231,1280,62980,137710,159424,62980
19958,1294,3239,3234,1333,62980,137710,159424,62980
20050,1327,3258,3236,1339,62980,137710,159424,62980
20050,1325,3242,3227,1276,62980,137710,159424,62980
20050,1281,3254,3222,1295,62980,137710,159424,62980
20050,1296,3235,3219,1329,62980,137710,159424,62980
20050,1340,3236,3236,1323,62980,137710,159424,62980
19683,1295,3221,3236,1276,62980,137710,159424,62980
20050,1275,3236,3245,1293,62980,137710,159424,62980
20050,1305,3239,3245,1331,62980,137710,159424,62980
19958,1309,3252,3226,1312,62980,137710,159424,62980
20050,1322,3243,3233,1317,62980,137710,159424,62980
19958,1304,3232,3244,1298,62980,137710,159424,62980
20050,1299,3250,3248,1310,62980,137710,159424,62980
20050,1312,3239,3239,1333,62980,137710,159424,62980
20050,1318,3252,3249,1315,62980,137710,159424,62980
20050,1319,3250,3233,1300,62980,137710,159424,62980
20050,1281,3252,3232,1298,62980,137710,159424,62980
20050,1306,3238,3235,1322,62980,137710,159424,62980
19683,1326,3235,3233,1328,62980,137710,159424,62980
20050,1303,3233,3237,1279,62980,137710,159424,62980
19958,1280,3250,3251,1291,62980,137710,159424,62980
20050,1289,3241,3236,1313,62980,137710,159424,62980
19958,1317,3236,3225,1325,62980,137710,159424,62980
20050,1323,3227,3234,1312,62980,137710,159424,62980
19958,1291,3244,3234,1290,62980,137710,159424,62980
20050,1308,3263,3239,1337,62980,137710,159424,62980
20050,1341,3238,3222,1369,62980,137710,159424,62980
20050,1365,3257,3236,1325,62980,137710,159424,62980
20050,1314,3237,3236,1313,62980,137710,159424,62980
20050,1307,3237,3231,1337,62980,137710,159424,62980
20050,1350,3220,3232,1360,62980,137710,159424,62980
19683,1349,3236,3250,1327,62980,137710,159424,62980
20050,1315,3235,3246,1305,62980,137710,159424,62980
19958,1307,3254,3235,1351,62980,137710,159424,62980
20050,1340,3243,3236,1323,62980,137710,159424,62980
19958,1333,3234,3237,1345,62980,137710,159424,62980
20050,1335,3240,3250,1331,62980,137710,159424,62980
19958,1322,3260,3234,1304,62980,137710,159424,62980
20050,1300,3260,3236,1327,62980,137710,159424,62980
20050,1327,3244,3219,1343,62980,137710,159424,62980
20050,1345,3245,3232,1325,62980,137710,159424,62980
20050,1306,3226,3233,1299,62980,137710,159424,62980
20050,1306,3232,3248,1329,62980,137710,159424,62980
20050,1338,3230,3247,1365,62980,137710,159424,62980
19683,1358,3252,3253,1321,62980,137710,159424,62980
20050,1307,3249,3238,1291,62980,137710,159424,62980
19958,1291,3239,3237,1336,62980,137710,159424,62980
20050,1344,3238,3235,1340,62980,137710,159424,62980
19958,1339,3245,3240,1328,62980,137710,159424,62980
20050,1312,3255,3239,1301,62980,137710,159424,62980
20050,1302,3241,3233,1319,62980,137710,159424,62980
20050,1315,3259,3235,1337,62980,137710,159424,62980
20050,1338,3240,3232,1323,62980,137710,159424,62980
20050,1313,3241,3234,1310,62980,137710,159424,62980
20080,1294,3225,3235,1307,62980,137710,159424,62980
19683,1322,3235,3244,1328,62980,137710,159424,62980
20050,1325,3236,3244,1337,62980,137710,159424,62980
20050,1331,3253,3250,1301,62980,137710,159424,62980
20080,1303,3240,3247,1313,62980,137710,159424,62980
20050,1308,3249,3249,1319,62980,137710,159424,62980
20050,1330,3255,3236,1334,62980,137710,159424,62980
20050,1322,3250,3234,1321,62980,137710,159424,62980
19683,1323,3237,3238,1292,62980,137710,159424,62980
19958,1288,3239,3248,1299,62980,137710,159424,62980
20050,1294,3236,3246,1327,62980,137710,159424,62980
19958,1343,3255,3239,1333,62980,137710,159424,62980
20050,1309,3255,3232,1274,62980,137710,159424,62980
19958,1270,3218,3236,1295,62980,137710,159424,62980
20050,1304,3236,3249,1345,62980,137710,159424,62980
19958,1338,3261,3224,1320,62980,137710,159424,62980
20050,1312,3252,3226,1270,62980,137710,159424,62980
20050,1259,3241,3236,1296,62980,137710,159424,62980
20050,1313,3242,3229,1327,62980,137710,159424,62980
20050,1318,3228,3232,1312,62980,137710,159424,62980
20050,1289,3235,3247,1286,62980,137710,159424,62980
20050,1295,3235,3249,1303,62980,137710,159424,62980
20050,1296,3248,3247,1300,62980,137710,159424,62980
19683,1307,3249,3237,1319,62980,137710,159424,62980
20324,1319,3236,3233,1323,62980,137710,159424,62980
19683,1303,3235,3234,1283,62980,137710,159424,62980
19958,1295,3236,3248,1306,62980,137710,159424,62980
20050,1298,3250,3250,1325,62980,137710,159424,62980
19958,1336,3252,3221,1325,62980,137710,159424,62980
20050,1303,3238,3226,1285,62980,137710,159424,62980
20050,1266,3223,3235,1284,62980,137710,159424,62980
20050,1307,3230,3244,1336,62980,137710,159424,62980
20050,1322,3238,3247,1317,62980,137710,159424,62980
20050,1308,3241,3249,1286,62980,137710,159424,62980
20050,1278,3255,3251,1297,62980,137710,159424,62980
20050,1291,3254,3237,1311,62980,137710,159424,62980
19683,1322,3255,3235,1340,62980,137710,159424,62980
20324,1313,3219,3234,1284,62980,137710,159424,62980
19683,1278,3232,3247,1279,62980,137710,159424,62980
20324,1289,3250,3238,1322,62980,137710,159424,62980
19683,1315,3252,3239,1317,62980,137710,159424,62980
20050,1320,3240,3238,1291,62980,137710,159424,62980
20050,1267,3245,3236,1273,62980,137710,159424,62980
20050,1288,3229,3232,1317,62980,137710,159424,62980
20080,1316,3235,3245,1350,63309,131177,143867,63732
20050,1307,39,55,1320,63309,131177,143867,63732
19683,1305,53,46,1326,63309,131177,143867,63732
20050,1295,50,37,1316,63309,131177,143867,63732
20050,1297,53,40,1325,63309,131177,143867,63732
20050,1317,34,25,1355,63309,131177,143867,63732
20050,1312,44,36,1302,63309,131177,143867,63732
20050,1281,33,35,1304,63309,131177,143867,63732
20050,1280,41,45,1336,63309,131177,143867,63732
20050,1333,30,36,1350,63309,131177,143867,63732
19683,1327,45,45,1314,63309,131177,143867,63732
20324,1272,42,29,1295,63309,131177,143867,63732
19683,1289,42,30,1356,63309,131177,143867,63732
20050,1332,43,37,1362,63309,131177,143867,63732
20050,1333,37,39,1312,63309,131177,143867,63732
20050,1279,36,46,1327,63309,131177,143867,63732
20050,1299,37,58,1335,63309,131177,143867,63732
20050,1327,41,58,1346,63309,131177,143867,63732
20050,1311,57,49,1327,63309,131177,143867,63732
19683,1304,56,41,1311,63309,131177,143867,63732
20324,1289,32,41,1336,63309,131177,143867,63732
19683,1305,45,48,1338,63309,131177,143867,63732
20324,1329,44,39,1342,63309,131177,143867,63732
19683,1303,43,42,1311,63309,131177,143867,63732
20324,1291,42,40,1321,63309,131177,143867,63732
19683,1298,29,40,1350,63309,131177,143867,63732
20050,1320,43,48,1343,63309,131177,143867,63732
20050,1319,37,39,1322,63309,131177,143867,63732
20050,1286,48,48,1311,63309,131177,143867,63732
20050,1299,38,48,1327,63309,131177,143867,63732
20050,1307,43,48,1356,63309,131177,143867,63732
20050,1325,54,37,1323,63309,131177,143867,63732
20050,1305,57,41,1307,63309,131177,143867,63732
19683,1270,42,38,1328,63309,131177,143867,63732
20050,1323,36,45,1360,63309,131177,143867,63732
20050,1334,37,56,1329,63309,131177,143867,63732
20050,1286,47,54,1286,63309,131177,143867,63732
20050,1276,46,47,1331,63309,131177,143867,63732
20050,1304,52,44,1352,63309,131177,143867,63732
20050,1335,52,39,1313,63309,131177,143867,63732
19683,1281,49,31,1303,63309,131177,143867,63732
20050,1282,41,30,1333,63309,131177,143867,63732
20050,1327,35,37,1332,63309,131177,143867,63732
20050,1293,37,46,1332,63309,131177,143867,63732
20050,1312,35,46,1325,63309,131177,143867,63732
20050,1298,45,46,1327,63309,131177,143867,63732
20050,1301,43,58,1332,63309,131177,143867,63732
20050,1325,45,53,1364,63309,131177,143867,63732
19683,1331,54,39,1337,63309,131177,143867,63732
20050,1312,58,43,1308,63309,131177,143867,63732
20050,1284,47,34,1337,63309,131177,143867,63732
20050,1321,47,47,1363,63309,131177,143867,63732
20050,1349,38,41,1338,63309,131177,143867,63732
20050,1293,46,58,1300,63309,131177,143867,63732
20050,1292,39,44,1333,63309,131177,143867,63732
19683,1316,56,52,1365,63309,131177,143867,63732
20050,1328,54,39,1335,63309,131177,143867,63732
20050,1314,54,42,1309,63309,131177,143867,63732
20050,1278,34,25,1325,63309,131177,143867,63732
20050,1320,49,39,1352,63309,131177,143867,63732
20050,1331,31,36,1350,63309,131177,143867,63732
20050,1311,45,50,1312,63309,131177,143867,63732
20050,1290,29,38,1324,63309,131177,143867,63732
19683,1295,49,50,1348,63309,131177,143867,63732
20050,1335,41,52,1352,63309,131177,143867,63732
20050,1314,49,51,1315,63309,131177,143867,63732
20050,1281,48,39,1323,63309,131177,143867,63732
20050,1310,58,37,1341,63309,131177,143867,63732
20050,1306,43,35,1335,63309,131177,143867,63732
20050,1317,43,48,1330,63309,131177,143867,63732
19683,1306,30,46,1318,63309,131177,143867,63732
20050,1283,44,57,1304,63309,131177,143867,63732
20050,1295,49,46,1354,63309,131177,143867,63732
20050,1333,61,47,1354,63309,131177,143867,63732
20050,1319,45,38,1304,63309,131177,143867,63732
20050,1274,55,38,1312,63309,131177,143867,63732
20050,1296,43,26,1349,63309,131177,143867,63732
20050,1343,44,41,1355,63309,131177,143867,63732
19683,1321,29,41,1293,63309,131177,143867,63732
20050,1271,47,50,1322,63309,131177,143867,63732
20050,1316,53,47,1378,63309,131177,143867,63732
20050,1338,93,47,1335,63309,131177,143867,63732
20050,1316,121,51,1326,63309,131177,143867,63732
20050,1298,112,50,1327,63309,131177,143867,63732
20050,1317,62,39,1343,63309,131177,143867,63732
19683,1319,93,40,1361,63309,131177,143867,63732
20050,1323,85,40,1327,63309,131177,143867,63732
20050,1311,45,46,1321,63309,131177,143867,63732
20050,1296,39,58,1330,63309,131177,143867,63732
20050,1318,46,57,1347,63309,131177,143867,63732
20050,1332,48,50,1348,63309,131177,143867,63732
20050,1309,76,51,1320,63309,131177,143867,63732
20050,1297,117,42,1339,63309,131177,143867,63732
19683,1308,235,31,1351,63309,131177,143867,63732
20050,1337,212,32,1355,63309,131177,143867,63732
20050,1323,133,41,1333,63309,131177,143867,63732
20050,1294,117,50,1313,63309,131177,143867,63732
20050,1304,129,49,1354,63309,131177,143867,63732
20050,1331,184,50,1367,63309,131177,143867,63732
20050,1340,138,46,1324,63309,131177,143867,63732
19683,1290,108,54,1316,63309,131177,143867,63732
20050,1295,78,42,1339,63309,131177,143867,63732
20050,1339,84,43,1379,63309,131177,143867,63732
20050,1337,90,33,1317,63309,131177,143867,63732
20050,1292,67,45,1313,63309,131177,143867,63732
20050,1297,39,46,1364,63309,131177,143867,63732
20050,1337,54,57,1351,63309,131177,143867,63732
20050,1329,67,47,1334,63309,131177,143867,63732
19683,1305,88,52,1325,63309,131177,143867,63732
20050,1316,53,41,1356,63309,131177,143867,63732
20050,1314,56,44,1347,63309,131177,143867,63732
20050,1323,49,26,1357,63309,131177,143867,63732
20050,1340,211,37,1349,63309,131177,143867,63732
20050,1324,258,39,1333,63309,131177,143867,63732
20050,1321,303,55,1364,63309,131177,143867,63732
20050,1350,398,129,1396,63309,131177,143867,63732
19683,1363,506,193,1347,63309,131177,143867,63732
20050,1316,428,157,1335,63309,131177,143867,63732
20050,1315,462,167,1376,63309,131177,143867,63732
20050,1371,454,175,1391,63309,131177,143867,63732
20050,1356,490,115,1355,63309,131177,143867,63732
20050,1316,409,87,1337,63309,131177,143867,63732
20050,1335,389,137,1376,63309,131177,143867,63732
19683,1344,352,139,1383,63309,131177,143867,63732
20050,1373,400,212,1366,63309,131177,143867,63732
20050,1328,422,186,1348,63309,131177,143867,63732
20050,1321,477,286,1368,63309,131177,143867,63732
20050,1360,537,350,1400,63309,131177,143867,63732
20050,1369,623,359,1382,63309,131177,143867,63732
20050,1356,549,290,1358,63309,131177,143867,63732
20050,1329,514,244,1380,63309,131177,143867,63732
19683,1370,518,257,1390,63309,131177,143867,63732
20050,1379,482,204,1392,63309,131177,143867,63732
20050,1351,439,91,1360,63309,131177,143867,63732
20050,1345,377,72,1377,63309,131177,143867,63732
20050,1351,355,42,1384,63309,131177,143867,63732
20050,1359,357,56,1395,63309,131177,143867,63732
20050,1381,368,45,1395,63309,131177,143867,63732
19683,1360,366,41,1360,63309,131177,143867,63732
20050,1338,303,39,1379,63309,131177,143867,63732
20050,1370,344,49,1424,63309,131177,143867,63732
20050,1393,292,60,1390,63309,131177,143867,63732
20050,1356,209,57,1358,63309,131177,143867,63732
20050,1324,246,47,1384,63309,131177,143867,63732
20050,1385,317,48,1426,63309,131177,143867,63732
20050,1396,304,43,1393,63309,131177,143867,63732
19683,1353,196,37,1362,63309,131177,143867,63732
20050,1349,218,34,1403,63309,131177,143867,63732
20050,1378,232,36,1409,63309,131177,143867,63732
20050,1392,258,49,1404,63309,131177,143867,63732
20080,1372,333,46,1732,64014,131976,145183,64437
20050,1429,1190,1562,1725,64014,131976,145183,64437
20050,1447,1364,1794,1747,64014,131976,145183,64437
19683,1446,1540,1959,1760,64014,131976,145183,64437
20050,1480,1465,1998,1755,64014,131976,145183,64437
20050,1436,1379,1940,1735,64014,131976,145183,64437
20050,1434,1267,1918,1738,64014,131976,145183,64437
20050,1459,1264,1887,1771,64014,131976,145183,64437
20050,1479,1275,1827,1744,64014,131976,145183,64437
20050,1462,1196,1819,1727,64014,131976,145183,64437
19683,1426,1093,1752,1748,64014,131976,145183,64437
20050,1459,1156,1839,1760,64014,131976,145183,64437
20050,1484,1211,1863,1773,64014,131976,145183,64437
20050,1464,1249,1891,1727,64014,131976,145183,64437
20050,1437,1200,1915,1740,64014,131976,145183,64437
20080,1454,1262,1982,1791,64014,131976,145183,64437
20050,1490,1268,2025,1770,64014,131976,145183,64437
19683,1485,1229,1982,1745,64014,131976,145183,64437
20050,1431,1230,1899,1739,64014,131976,145183,64437
20050,1477,1160,1916,1785,64014,131976,145183,64437
20050,1491,1138,1869,1784,64014,131976,145183,64437
20050,1480,1144,1775,1737,64014,131976,145183,64437
20050,1455,1148,1703,1758,64014,131976,145183,64437
20050,1468,1131,1702,1774,64014,131976,145183,64437
20050,1487,1063,1644,1765,64014,131976,145183,64437
19683,1471,1053,1581,1771,64014,131976,145183,64437
20050,1467,1035,1582,1748,64014,131976,145183,64437
20050,1464,1013,1555,1755,64014,131976,145183,64437
20050,1453,1100,1581,1776,64014,131976,145183,64437
20080,1506,1137,1570,1784,64014,131976,145183,64437
20050,1483,1113,1515,1753,64014,131976,145183,64437
20050,1445,1030,1467,1735,64014,131976,145183,64437
19683,1455,1057,1482,1781,64014,131976,145183,64437
20050,1493,1063,1447,1788,64014,131976,145183,64437
20050,1488,996,1374,1723,64014,131976,145183,64437
20050,1420,908,1307,1743,64014,131976,145183,64437
20050,1455,952,1346,1763,64014,131976,145183,64437
20050,1490,914,1319,1776,64014,131976,145183,64437
20050,1468,927,1411,1737,64014,131976,145183,64437
19683,1451,1017,1637,1746,64014,131976,145183,64437
20050,1456,1269,1929,1782,64014,131976,145183,64437
20050,1487,1361,2128,1776,64014,131976,145183,64437
20050,1493,1405,2187,1785,64014,131976,145183,64437
20050,1473,1366,2150,1756,64014,131976,145183,64437
20050,1463,1363,2162,1767,64014,131976,145183,64437
20050,1476,1368,2111,1796,64014,131976,145183,64437
20050,1496,1368,2135,1768,64014,131976,145183,64437
19683,1477,1298,2083,1748,64014,131976,145183,64437
20050,1452,1295,2087,1760,64014,131976,145183,64437
20050,1481,1272,2065,1774,64014,131976,145183,64437
20050,1491,1334,2059,1788,64014,131976,145183,64437
20050,1489,1271,2093,1765,64014,131976,145183,64437
20050,1472,1247,2109,1761,64014,131976,145183,64437
20050,1466,1319,2162,1774,64014,131976,145183,64437
19683,1495,1445,2260,1813,64014,131976,145183,64437
20050,1513,1410,2247,1774,64014,131976,145183,64437
20050,1464,1271,2218,1733,64014,131976,145183,64437
20050,1459,1259,2179,1792,64014,131976,145183,64437
20050,1502,1337,2149,1811,64014,131976,145183,64437
20050,1521,1686,2008,1773,64014,131976,145183,64437
20050,1462,1776,1923,1763,64014,131976,145183,64437
20050,1465,1761,1941,1800,64014,131976,145183,64437
19714,1512,1794,1961,1805,64014,131976,145183,64437
20050,1500,1762,1905,1767,64014,131976,145183,64437
20050,1480,1688,1876,1769,64014,131976,145183,64437
20050,1478,1798,1874,1790,64014,131976,145183,64437
20050,1493,1497,1847,1777,64014,131976,145183,64437
20050,1498,2190,1837,1797,64014,131976,145183,64437
20050,1496,1954,1769,1775,64014,131976,145183,64437
19683,1484,2011,1787,1769,64014,131976,145183,64437
20050,1472,1840,1774,1790,64014,131976,145183,64437
20050,1503,1888,1821,1808,64014,131976,145183,64437
20050,1522,1899,1810,1778,64014,131976,145183,64437
20050,1480,1888,1766,1758,64014,131976,145183,64437
20050,1479,1954,1765,1798,64014,131976,145183,64437
20050,1514,2063,1761,1816,64014,131976,145183,64437
19683,1519,2021,1756,1781,64014,131976,145183,64437
20050,1488,2002,1877,1762,64014,131976,145183,64437
20050,1466,2131,2142,1785,64014,131976,145183,64437
20050,1509,2323,2483,1821,64014,131976,145183,64437
20050,1525,2515,2693,1808,64014,131976,145183,64437
20050,1501,2169,2861,1772,64014,131976,145183,64437
20080,1486,2147,2938,1803,64014,131976,145183,64437
19683,1506,2298,2979,1819,64014,131976,145183,64437
20050,1541,2341,2987,1821,64014,131976,145183,64437
20050,1512,2362,3006,1778,64014,131976,145183,64437
20050,1476,2276,3039,1796,64014,131976,145183,64437
20050,1525,2352,3085,1828,64014,131976,145183,64437
20050,1526,2441,3062,1807,64014,131976,145183,64437
20050,1518,2466,3094,1795,64014,131976,145183,64437
20050,1499,2410,3161,1803,64014,131976,145183,64437
19714,1512,2523,3235,1805,64014,131976,145183,64437
20050,1519,2646,3239,1827,64014,131976,145183,64437
20050,1532,2872,3250,1819,64014,131976,145183,64437
20050,1537,3226,3243,1814,64014,131976,145183,64437
20050,1520,3249,3242,1844,64014,131976,145183,64437
20050,1565,3240,3229,1826,64014,131976,145183,64437
20050,1460,3240,1118,1164,64014,131976,145183,64437
19714,590,52,42,60,64014,131976,145183,64437
20263,37,44,56,36,64014,131976,145183,64437
19897,37,55,39,35,64014,131976,145183,64437
20019,30,28,35,33,64014,131976,145183,64437
19897,33,32,34,33,64014,131976,145183,64437
19897,45,27,38,31,64014,131976,145183,64437
20263,31,42,35,30,64014,131976,145183,64437
20019,31,55,39,41,64014,131976,145183,64437
19897,54,76,97,54,64014,131976,145183,64437
19897,50,55,46,39,64014,131976,145183,64437
19897,35,50,57,42,64014,131976,145183,64437
20263,44,62,48,44,64014,131976,145183,64437
19897,42,67,69,47,64014,131976,145183,64437
19897,48,64,59,49,64014,131976,145183,64437
20263,53,87,85,56,64014,131976,145183,64437
19897,59,687,687,83,64014,131976,145183,64437
19897,85,124,116,78,64014,131976,145183,64437
19897,80,55,60,40,64014,131976,145183,64437
20263,40,58,72,40,64014,131976,145183,64437
19897,42,44,54,39,64014,131976,145183,64437
19897,40,49,39,33,64014,131976,145183,64437
20263,35,31,48,32,64014,131976,145183,64437
19897,32,36,37,32,64014,131976,145183,64437
19897,32,36,56,31,64014,131976,145183,64437
19897,33,41,41,34,64014,131976,145183,64437
20263,33,43,47,34,64014,131976,145183,64437
19897,36,49,41,41,64014,131976,145183,64437
19897,39,42,49,35,64014,131976,145183,64437
20263,37,40,57,34,64014,131976,145183,64437
19897,34,47,44,36,64014,131976,145183,64437
20019,34,49,34,35,64014,131976,145183,64437
19897,37,35,53,35,64014,131976,145183,64437
19897,35,55,39,37,64014,131976,145183,64437
20263,34,44,53,35,64014,131976,145183,64437
20019,36,39,47,35,64014,131976,145183,64437
19897,36,33,31,35,64014,131976,145183,64437
19897,36,32,37,36,64014,131976,145183,64437
19897,37,28,37,38,64014,131976,145183,64437
20263,36,39,33,34,64014,131976,145183,64437
19897,33,34,43,34,64014,131976,145183,64437
19897,35,41,36,35,64014,131976,145183,64437
20263,47,39,45,33,64014,131976,145183,64437
19897,46,45,34,36,64014,131976,145183,64437
19897,49,41,46,35,64014,131976,145183,64437
20019,35,45,46,37,64014,131976,145183,64437
19897,37,41,36,37,64014,131976,145183,64437
20263,39,52,54,34,64014,131976,145183,64437
19897,37,49,42,33,64014,131976,145183,64437
20019,37,33,40,34,64014,131976,145183,64437
19897,34,31,25,31,64014,131976,145183,64437
19897,28,25,31,29,64014,131976,145183,64437
20263,32,36,20,33,64014,131976,145183,64437
20050,30,35,30,33,81357,146969,156604,81874
20019,45,34,32,35,81357,146969,156604,81874
19897,22,40,37,42,81357,146969,156604,81874
19897,52,35,34,21,81357,146969,156604,81874
19897,22,45,34,45,81357,146969,156604,81874
20263,46,31,39,20,81357,146969,156604,81874
19897,21,44,35,45,81357,146969,156604,81874
19897,52,31,40,23,81357,146969,156604,81874
20263,31,45,34,45,81357,146969,156604,81874
19897,45,30,39,33,81357,146969,156604,81874
19897,35,37,33,49,81357,146969,156604,81874
19897,25,27,42,37,81357,146969,156604,81874
20263,32,42,34,45,81357,146969,156604,81874
19897,23,33,43,33,81357,146969,156604,81874
19897,35,37,35,36,81357,146969,156604,81874
20263,23,38,41,30,81357,146969,156604,81874
19897,33,41,31,32,81357,146969,156604,81874
19897,24,37,38,32,81357,146969,156604,81874
19897,32,37,30,31,81357,146969,156604,81874
20263,18,34,37,41,81357,146969,156604,81874
19897,34,30,29,31,81357,146969,156604,81874
19897,13,36,24,32,81357,146969,156604,81874
20263,30,26,30,17,81357,146969,156604,81874
19897,15,36,25,28,81357,146969,156604,81874
19897,32,32,38,14,81357,146969,156604,81874
19897,13,45,27,32,81357,146969,156604,81874
20263,30,27,35,14,81357,146969,156604,81874
19897,16,38,23,32,81357,146969,156604,81874
19897,31,29,36,14,81357,146969,156604,81874
20019,16,34,30,43,81357,146969,156604,81874
19897,41,27,28,16,81357,146969,156604,81874
20263,15,41,30,40,81357,146969,156604,81874
19897,47,30,35,15,81357,146969,156604,81874
20019,34,29,38,17,81357,146969,156604,81874
19897,35,45,23,39,81357,146969,156604,81874
20263,31,27,31,28,81357,146969,156604,81874
19897,29,35,27,40,81357,146969,156604,81874
20019,48,38,55,72,81357,146969,156604,81874
19897,71,79,57,98,81357,146969,156604,81874
19897,101,52,64,72,81357,146969,156604,81874
20263,83,54,38,60,81357,146969,156604,81874
19897,65,37,43,47,81357,146969,156604,81874
20019,37,39,54,51,81357,146969,156604,81874
19897,57,53,45,58,81357,146969,156604,81874
19897,47,48,54,60,81357,146969,156604,81874
20263,37,41,30,26,81357,146969,156604,81874
20019,46,26,35,22,81357,146969,156604,81874
19897,35,35,28,35,81357,146969,156604,81874
19897,36,26,36,31,81357,146969,156604,81874
20263,30,39,33,43,81357,146969,156604,81874
20019,35,40,32,32,81357,146969,156604,81874
19897,22,38,45,43,81357,146969,156604,81874
19897,38,34,30,37,81357,146969,156604,81874
19897,15,38,37,52,81357,146969,156604,81874
20263,35,32,33,32,81357,146969,156604,81874
20019,33,36,42,13,81357,146969,156604,81874
19897,45,44,30,36,81357,146969,156604,81874
19897,35,36,44,15,81357,146969,156604,81874
19897,50,39,31,40,81357,146969,156604,81874
20263,33,38,39,33,81357,146969,156604,81874
19897,52,35,29,38,81357,146969,156604,81874
19897,18,36,36,47,81357,146969,156604,81874
20263,44,32,28,34,81357,146969,156604,81874
19897,16,41,34,42,81357,146969,156604,81874
19897,52,35,36,17,81357,146969,156604,81874
19897,17,48,37,48,81357,146969,156604,81874
20263,47,31,40,16,81357,146969,156604,81874
19897,17,48,35,49,81357,146969,156604,81874
19897,54,31,37,18,81357,146969,156604,81874
20019,18,33,32,32,81357,146969,156604,81874
20263,29,42,28,35,81357,146969,156604,81874
19897,17,42,38,29,81357,146969,156604,81874
19897,36,49,36,19,81357,146969,156604,81874
19897,16,46,42,40,81357,146969,156604,81874
20019,31,59,38,58,81357,146969,156604,81874
20263,50,28,38,26,81357,146969,156604,81874
19897,31,39,32,42,81357,146969,156604,81874
19897,35,31,37,30,81357,146969,156604,81874
20019,22,40,60,33,81357,146969,156604,81874
19897,39,43,135,38,81357,146969,156604,81874
20263,18,41,49,37,81357,146969,156604,81874
19897,40,37,30,23,81357,146969,156604,81874
20019,38,33,48,13,81357,146969,156604,81874
19897,29,45,34,41,81357,146969,156604,81874
19897,34,38,43,11,81357,146969,156604,81874
20263,49,41,32,33,81357,146969,156604,81874
19897,39,39,45,28,81357,146969,156604,81874
20019,17,42,39,53,81357,146969,156604,81874
19897,40,36,36,15,81357,146969,156604,81874
20263,12,53,39,49,81357,146969,156604,81874
19897,36,39,45,12,81357,146969,156604,81874
20019,33,35,45,33,81357,146969,156604,81874
19897,51,35,25,39,81357,146969,156604,81874
19897,13,35,36,33,81357,146969,156604,81874
20263,44,33,27,37,81357,146969,156604,81874
20019,39,34,41,19,81357,146969,156604,81874
19897,32,51,41,53,81357,146969,156604,81874
19897,45,32,52,11,81357,146969,156604,81874
19897,26,48,34,50,81357,146969,156604,81874
20263,31,27,41,34,81357,146969,156604,81874
20019,13,42,38,34,81357,146969,156604,81874
19897,48,38,37,20,81357,146969,156604,81874
19897,19,40,34,32,81357,146969,156604,81874
20263,44,28,35,16,81357,146969,156604,81874
20019,48,31,44,37,81357,146969,156604,81874
19897,64,72,63,61,81357,146969,156604,81874
19897,66,51,69,105,81357,146969,156604,81874
19897,96,88,78,87,81357,146969,156604,81874
20263,73,83,96,76,81357,146969,156604,81874
19897,81,89,77,85,81357,146969,156604,81874
19897,73,85,96,80,81357,146969,156604,81874
19897,86,89,74,80,81357,146969,156604,81874
20263,60,75,73,75,81357,146969,156604,81874
19897,67,54,52,61,81357,146969,156604,81874
19897,41,56,56,73,81357,146969,156604,81874
20263,53,46,46,51,81357,146969,156604,81874
19897,31,57,50,63,81357,146969,156604,81874
19897,56,49,47,29,81357,146969,156604,81874
19897,28,68,40,54,81357,146969,156604,81874
20019,64,53,43,51,81357,146969,156604,81874
20263,46,46,52,42,81357,146969,156604,81874
19897,62,41,32,43,81357,146969,156604,81874
19897,18,39,39,51,81357,146969,156604,81874
20019,21,56,37,50,81357,146969,156604,81874
20263,35,33,37,8,81357,146969,156604,81874
19897,29,46,34,45,81357,146969,156604,81874
19897,34,30,37,12,81357,146969,156604,81874
20019,13,33,34,29,81357,146969,156604,81874
19897,44,33,25,15,81357,146969,156604,81874
20263,13,42,33,27,81357,146969,156604,81874
19897,44,36,32,13,81357,146969,156604,81874
19897,14,48,36,34,81357,146969,156604,81874
20019,31,39,31,55,81357,146969,156604,81874
19897,21,30,39,31,81357,146969,156604,81874
20263,29,43,33,48,81357,146969,156604,81874
19897,17,36,45,31,81357,146969,156604,81874
20019,15,44,36,32,81357,146969,156604,81874
19897,39,27,37,16,81357,146969,156604,81874
19897,29,43,30,38,81357,146969,156604,81874
20263,45,22,33,14,81357,146969,156604,81874
20019,32,42,42,26,81357,146969,156604,81874
19897,32,46,33,38,81357,146969,156604,81874
19897,37,40,44,27,81357,146969,156604,81874
20263,35,42,29,33,81357,146969,156604,81874
19897,18,41,45,47,81357,146969,156604,81874
20019,12,46,27,33,81357,146969,156604,81874
19897,39,41,38,13,81357,146969,156604,81874
19897,10,41,30,38,81357,146969,156604,81874
20263,33,35,43,8,81357,146969,156604,81874
20019,33,37,45,43,81357,146969,156604,81874
19683,14,46,37,38,154113,167555,167132,154583
20263,45,2910,2179,44,154113,167555,167132,154583
20050,44,2459,1338,35,154113,167555,167132,154583
20050,50,3235,3072,36,154113,167555,167132,154583
19683,40,3235,3229,30,154113,167555,167132,154583
20050,43,3232,2727,37,154113,167555,167132,154583
20050,32,2955,2864,37,154113,167555,167132,154583
20050,29,3177,2954,52,154113,167555,167132,154583
20050,33,3236,3136,35,154113,167555,167132,154583
20050,38,3240,3212,38,154113,167555,167132,154583
20050,39,3096,2044,31,154113,167555,167132,154583
19683,49,1976,1953,27,154113,167555,167132,154583
20050,38,3219,2937,34,154113,167555,167132,154583
20050,39,3226,3229,33,154113,167555,167132,154583
20050,27,2822,2115,32,154113,167555,167132,154583
20050,28,2660,1101,41,154113,167555,167132,154583
20050,27,2906,3197,41,154113,167555,167132,154583
20050,33,3239,3228,43,154113,167555,167132,154583
20050,34,2743,2162,37,154113,167555,167132,154583
19683,41,2336,2020,37,154113,167555,167132,154583
20050,47,3168,2966,31,154113,167555,167132,154583
20050,47,3236,3230,29,154113,167555,167132,154583
20050,38,3233,2852,25,154113,167555,167132,154583
20050,31,2721,1986,37,154113,167555,167132,154583
20050,31,2866,3168,36,154113,167555,167132,154583
20050,29,3238,3215,44,154113,167555,167132,154583
19683,37,3240,3216,34,154113,167555,167132,154583
20050,34,3236,2615,35,154113,167555,167132,154583
20050,44,3226,3078,27,154113,167555,167132,154583
20050,44,3224,3226,25,154113,167555,167132,154583
20050,37,3225,3231,35,154113,167555,167132,154583
20050,30,3237,3234,33,154113,167555,167132,154583
20050,32,3232,3159,35,154113,167555,167132,154583
20050,31,3235,3105,44,154113,167555,167132,154583
19683,35,3239,3233,107,154113,167555,167132,154583
20050,32,3238,2734,186,154113,167555,167132,154583
20050,42,2377,1815,35,154113,167555,167132,154583
20050,39,2762,2858,38,154113,167555,167132,154583
20050,46,3240,3230,33,154113,167555,167132,154583
20050,87,3233,2529,32,154113,167555,167132,154583
20050,40,2710,1789,29,154113,167555,167132,154583
19683,31,3030,2985,35,154113,167555,167132,154583
20050,31,3241,3219,47,154113,167555,167132,154583
20050,27,3238,2994,41,154113,167555,167132,154583
20050,37,3132,2623,33,154113,167555,167132,154583
20050,35,3225,2935,30,154113,167555,167132,154583
20050,43,3223,3229,29,154113,167555,167132,154583
20050,36,3224,3229,26,154113,167555,167132,154583
20050,38,3222,3221,34,154113,167555,167132,154583
19683,28,3235,3083,31,154113,167555,167132,154583
20050,26,3235,3232,39,154113,167555,167132,154583
20050,23,3238,3232,38,154113,167555,167132,154583
20050,33,3189,2424,43,154113,167555,167132,154583
20050,34,3233,2845,41,154113,167555,167132,154583
20050,44,3237,3225,42,154113,167555,167132,154583
20050,42,3239,3229,32,154113,167555,167132,154583
19683,48,3238,3073,33,154113,167555,167132,154583
20050,41,2995,1804,24,154113,167555,167132,154583
20050,39,2908,2752,39,154113,167555,167132,154583
20050,29,3222,3210,38,154113,167555,167132,154583
20050,31,3238,3214,46,154113,167555,167132,154583
20050,33,2184,1552,35,154113,167555,167132,154583
20050,39,2039,1752,40,154113,167555,167132,154583
20050,37,3224,3219,31,154113,167555,167132,154583
19683,46,3224,3009,29,154113,167555,167132,154583
20050,38,2508,1642,26,154113,167555,167132,154583
20050,36,2432,2230,34,154113,167555,167132,154583
20050,30,3238,3234,34,154113,167555,167132,154583
20050,31,3238,3235,42,154113,167555,167132,154583
20050,29,3110,2219,40,154113,167555,167132,154583
20050,36,3234,2280,46,154113,167555,167132,154583
19683,35,3240,3229,38,154113,167555,167132,154583
20050,39,3236,2753,38,154113,167555,167132,154583
20050,43,3237,3065,28,154113,167555,167132,154583
20050,45,3206,2136,26,154113,167555,167132,154583
20050,38,3000,1194,29,154113,167555,167132,154583
20050,34,3079,3230,39,154113,167555,167132,154583
20050,32,3236,2931,34,154113,167555,167132,154583
20050,30,1982,1401,44,154113,167555,167132,154583
19683,38,1625,1572,36,154113,167555,167132,154583
20050,34,3236,3121,34,154113,167555,167132,154583
20050,44,3224,2966,25,154113,167555,167132,154583
20050,44,2156,1309,27,154113,167555,167132,154583
20050,40,2010,1733,29,154113,167555,167132,154583
20050,31,3218,3228,35,154113,167555,167132,154583
20050,30,3234,3228,34,154113,167555,167132,154583
19683,29,2593,2121,41,154113,167555,167132,154583
20050,34,2556,876,42,154113,167555,167132,154583
20050,34,2906,2688,46,154113,167555,167132,154583
20050,45,3237,3224,35,154113,167555,167132,154583
20050,43,2986,2563,36,154113,167555,167132,154583
20050,45,1798,1284,32,154113,167555,167132,154583
20050,36,2626,2753,32,154113,167555,167132,154583
20050,38,3232,3229,29,154113,167555,167132,154583
19683,34,3229,2712,34,154113,167555,167132,154583
20050,28,3011,2067,43,154113,167555,167132,154583
20050,24,2882,2859,46,154113,167555,167132,154583
20050,34,3234,2465,36,154113,167555,167132,154583
20050,36,3222,3215,32,154113,167555,167132,154583
20050,43,2991,1908,27,154113,167555,167132,154583
20050,38,1850,304,28,154113,167555,167132,154583
20050,39,1997,2193,27,154113,167555,167132,154583
19683,27,3228,3219,31,154113,167555,167132,154583
20050,26,2481,1663,41,154113,167555,167132,154583
20050,25,1113,267,39,154113,167555,167132,154583
20050,34,2550,2172,47,154113,167555,167132,154583
20050,33,3235,3228,37,154113,167555,167132,154583
20050,41,2761,1382,41,154113,167555,167132,154583
20050,43,934,760,32,154113,167555,167132,154583
19683,46,2269,2394,29,154113,167555,167132,154583
20050,35,3235,2823,26,154113,167555,167132,154583
20050,35,2981,2232,33,154113,167555,167132,154583
20050,31,2376,838,35,154113,167555,167132,154583
20050,31,2035,1177,44,154113,167555,167132,154583
20050,28,2153,1753,36,154113,167555,167132,154583
20050,39,3238,2831,38,154113,167555,167132,154583
20050,35,1870,1426,32,154113,167555,167132,154583
19683,42,823,34,26,154113,167555,167132,154583
20263,30,1897,1614,44,154113,167555,167132,154583
20050,30,3054,2841,35,154113,167555,167132,154583
19683,33,2320,1397,35,154113,167555,167132,154583
20050,44,127,223,38,154113,167555,167132,154583
20050,40,1864,1142,37,154113,167555,167132,154583
20050,37,3232,2715,33,154113,167555,167132,154583
20050,29,2447,1954,35,154113,167555,167132,154583
20050,29,936,33,32,154113,167555,167132,154583
19897,45,641,777,37,154113,167555,167132,154583
20050,36,2799,2717,35,154113,167555,167132,154583
20050,47,2826,2015,32,154113,167555,167132,154583
20050,39,956,155,36,154113,167555,167132,154583
19683,47,1600,1154,42,154113,167555,167132,154583
20050,37,3078,3055,44,154113,167555,167132,154583
20050,40,3190,1837,55,154113,167555,167132,154583
20050,36,1418,548,68,154113,167555,167132,154583
20050,64,1768,1796,55,154113,167555,167132,154583
20050,55,3198,2391,47,154113,167555,167132,154583
20050,68,2822,2897,47,154113,167555,167132,154583
20050,55,3034,2131,46,154113,167555,167132,154583
19683,53,2988,2293,54,154113,167555,167132,154583
20050,43,2739,2282,52,154113,167555,167132,154583
20050,44,3210,3188,63,154113,167555,167132,154583
20050,40,3213,3207,64,154113,167555,167132,154583
20050,54,2885,1071,68,154113,167555,167132,154583
20050,55,2682,2633,56,154113,167555,167132,154583
20050,64,3215,3209,152,154113,167555,167132,154583
20050,64,3215,2846,81,154113,167555,167132,154583
19683,68,2638,2588,49,154113,167555,167132,154583
20050,54,3027,2924,48,154113,167555,167132,154583
20050,56,3214,3208,56,154113,167555,167132,154583
20050,53,3213,3206,50,154113,167555,167132,154583
20080,43,3213,2883,2833,163889,163137,163936,163419
20050,3164,1569,2631,3231,163889,163137,163936,163419
19714,3256,3218,3151,3263,163889,163137,163936,163419
20080,3241,3215,3198,3262,163889,163137,163936,163419
20080,3260,2213,1911,3259,163889,163137,163936,163419
20080,3144,1415,1078,2931,163889,163137,163936,163419
20080,3156,2471,3019,3265,163889,163137,163936,163419
19714,3243,3068,2837,3265,163889,163137,163936,163419
20080,3262,2331,2218,2501,163889,163137,163936,163419
20080,3188,1154,750,2943,163889,163137,163936,163419
20080,3008,1574,1275,3268,163889,163137,163936,163419
19714,3245,2588,3034,3250,163889,163137,163936,163419
20080,3266,2973,2223,3126,163889,163137,163936,163419
20080,3189,1324,1032,2519,163889,163137,163936,163419
20080,3258,999,1114,3118,163889,163137,163936,163419
20080,3266,2693,2279,3250,163889,163137,163936,163419
19714,3266,3208,3163,3251,163889,163137,163936,163419
20080,2975,1932,1108,2728,163889,163137,163936,163419
20080,2661,1146,1691,2715,163889,163137,163936,163419
20080,3280,2976,3220,3255,163889,163137,163936,163419
20080,3268,3210,3216,3019,163889,163137,163936,163419
19714,3269,1736,1843,2899,163889,163137,163936,163419
20080,3265,1896,1552,3253,163889,163137,163936,163419
20080,3256,3201,3220,3263,163889,163137,163936,163419
20080,3252,3210,3216,3255,163889,163137,163936,163419
19714,3254,3016,2721,3263,163889,163137,163936,163419
20080,3249,2610,2968,3250,163889,163137,163936,163419
20080,3256,3154,3218,3265,163889,163137,163936,163419
20080,3254,3222,3203,3253,163889,163137,163936,163419
20080,3256,3219,2875,3264,163889,163137,163936,163419
19714,3249,2957,2728,3263,163889,163137,163936,163419
20080,3274,1824,2738,3283,163889,163137,163936,163419
20080,3284,2828,2806,3283,163889,163137,163936,163419
20080,3273,3246,3229,3073,163889,163137,163936,163419
19714,3280,1640,1344,3016,163889,163137,163936,163419
20080,2747,951,1223,2944,163889,163137,163936,163419
20080,3284,2372,3090,3288,163889,163137,163936,163419
20080,3277,3248,3228,3285,163889,163137,163936,163419
20080,2881,1963,1318,1862,163889,163137,163936,163419
19714,2458,446,849,2310,163889,163137,163936,163419
20050,2902,2685,2027,3275,163889,163137,163936,163419
20080,3285,2510,3138,3286,163889,163137,163936,163419
20080,3045,1900,1420,2289,163889,163137,163936,163419
20080,2179,185,32,1112,163889,163137,163936,163419
20050,2582,694,1223,2935,163889,163137,163936,163419
19714,3282,3049,2732,3269,163889,163137,163936,163419
20080,3289,1760,2113,1826,163889,163137,163936,163419
20080,1667,494,37,1387,163889,163137,163936,163419
20050,1636,631,1623,2640,163889,163137,163936,163419
20080,3291,1446,1665,3268,163889,163137,163936,163419
19714,3266,1430,413,2293,163889,163137,163936,163419
20080,2223,252,389,1111,163889,163137,163936,163419
20050,1808,271,38,2457,163889,163137,163936,163419
20050,2530,62,157,1604,163889,163137,163936,163419
20050,2941,815,1230,2935,163889,163137,163936,163419
19714,2706,1730,1075,1685,163889,163137,163936,163419
20080,1827,152,32,101,163889,163137,163936,163419
20050,648,283,151,2489,163889,163137,163936,163419
20050,2959,1873,2480,3269,163889,163137,163936,163419
20080,2959,2091,1469,1624,163889,163137,163936,163419
20080,1079,37,45,470,163889,163137,163936,163419
19683,1123,32,648,1860,163889,163137,163936,163419
20050,3059,2212,1610,3271,163889,163137,163936,163419
20080,2769,1375,847,1015,163889,163137,163936,163419
20080,1116,33,53,666,163889,163137,163936,163419
20050,1113,290,427,2221,163889,163137,163936,163419
20050,3034,47,275,2003,163889,163137,163936,163419
19683,3021,79,33,1981,163889,163137,163936,163419
20050,1331,48,29,42,163889,163137,163936,163419
20050,347,30,29,609,163889,163137,163936,163419
20050,548,31,37,243,163889,163137,163936,163419
20050,1235,33,39,397,163889,163137,163936,163419
20050,1012,32,35,485,163889,163137,163936,163419
20050,56,41,31,31,163889,163137,163936,163419
19897,35,34,36,123,163889,163137,163936,163419
19897,93,39,31,42,163889,163137,163936,163419
20263,88,33,37,32,163889,163137,163936,163419
19897,34,36,30,37,163889,163137,163936,163419
19897,38,34,38,33,163889,163137,163936,163419
19897,32,39,33,43,163889,163137,163936,163419
20263,41,30,38,34,163889,163137,163936,163419
19897,48,38,31,40,163889,163137,163936,163419
19897,41,34,38,31,163889,163137,163936,163419
19897,33,40,32,43,163889,163137,163936,163419
20263,330,32,42,37,163889,163137,163936,163419
19897,34,41,31,38,163889,163137,163936,163419
19897,42,31,39,32,163889,163137,163936,163419
20263,33,41,29,92,163889,163137,163936,163419
19897,35,33,39,33,163889,163137,163936,163419
19897,30,34,34,40,163889,163137,163936,163419
19897,37,31,32,30,163889,163137,163936,163419
20019,90,40,36,40,163889,163137,163936,163419
20263,39,31,38,40,163889,163137,163936,163419
19897,29,41,30,38,163889,163137,163936,163419
19897,38,29,39,29,163889,163137,163936,163419
20263,32,41,31,42,163889,163137,163936,163419
19897,35,34,39,31,163889,163137,163936,163419
19897,32,31,28,44,163889,163137,163936,163419
19897,33,30,33,30,163889,163137,163936,163419
20263,33,33,31,33,163889,163137,163936,163419
19897,31,31,31,33,163889,163137,163936,163419
19897,187,33,32,33,163889,163137,163936,163419
20263,71,39,34,32,163889,163137,163936,163419
20019,35,38,31,43,163889,163137,163936,163419
19897,331,35,38,36,163889,163137,163936,163419
19897,42,39,32,523,163889,163137,163936,163419
19897,1220,37,55,163,163889,163137,163936,163419
20050,877,34,42,2670,163889,163137,163936,163419
20050,2980,36,398,3102,163889,163137,163936,163419
20050,3270,961,3229,3289,163889,163137,163936,163419
20080,3275,3248,3234,3284,163889,163137,163936,163419
20080,3282,3247,3233,3285,163889,163137,163936,163419
19714,3269,574,3098,3286,163889,163137,163936,163419
20080,3283,42,32,3288,163889,163137,163936,163419
20050,3286,44,32,3287,163889,163137,163936,163419
20050,3272,34,30,3276,163889,163137,163936,163419
20050,3284,32,38,3274,163889,163137,163936,163419
20050,3284,32,38,3275,163889,163137,163936,163419
19683,3286,32,41,3273,163889,163137,163936,163419
20050,3274,33,35,3277,163889,163137,163936,163419
20050,3272,44,36,3283,163889,163137,163936,163419
20050,3272,43,31,3284,163889,163137,163936,163419
20050,3278,44,31,3285,163889,163137,163936,163419
20050,3276,35,31,3275,163889,163137,163936,163419
20050,3283,35,39,3276,163889,163137,163936,163419
20050,3282,31,39,3281,163889,163137,163936,163419
19958,3273,43,33,3271,163889,163137,163936,163419
19683,3273,41,35,3284,163889,163137,163936,163419
20050,3272,42,33,3285,163889,163137,163936,163419
20050,3271,33,32,3285,163889,163137,163936,163419
20050,3283,35,42,3288,163889,163137,163936,163419
20050,3283,33,40,3287,163889,163137,163936,163419
20050,3282,33,44,3286,163889,163137,163936,163419
20050,3288,40,43,3274,163889,163137,163936,163419
20050,3289,40,44,3274,163889,163137,163936,163419
19958,3280,41,41,3290,163889,163137,163936,163419
20050,3277,36,40,3289,163889,163137,163936,163419
19958,3289,35,41,3280,163889,163137,163936,163419
20050,3276,32,35,3279,163889,163137,163936,163419
19683,3276,41,43,3284,163889,163137,163936,163419
20050,3275,42,40,3284,163889,163137,163936,163419
20050,3274,42,42,3287,163889,163137,163936,163419
20050,3285,42,38,3287,163889,163137,163936,163419
20050,3288,43,32,3287,163889,163137,163936,163419
20050,3280,37,34,3272,163889,163137,163936,163419
20050,3286,35,43,3276,163889,163137,163936,163419
19958,3290,40,42,3274,163889,163137,163936,163419
20050,3282,42,38,3274,163889,163137,163936,163419
19958,3284,34,39,3289,163889,163137,163936,163419
20050,3286,36,41,3285,163889,163137,163936,163419
19714,3285,36,42,3264,153079,178882,179164,152985
20050,3274,39,36,3266,153079,178882,179164,152985
20050,3283,37,34,3276,153079,178882,179164,152985
20050,3264,36,36,3276,153079,178882,179164,152985
20050,3268,39,35,3291,153079,178882,179164,152985
20050,3272,37,37,3288,153079,178882,179164,152985
20050,3277,36,37,3290,153079,178882,179164,152985
19683,3287,37,36,3278,153079,178882,179164,152985
20050,3286,38,38,3274,153079,178882,179164,152985
20050,3279,38,39,3273,153079,178882,179164,152985
20050,3286,39,34,3271,153079,178882,179164,152985
20050,3282,38,38,3264,153079,178882,179164,152985
20050,3276,36,36,3279,153079,178882,179164,152985
20050,3275,38,36,3275,153079,178882,179164,152985
19958,3286,38,36,3278,153079,178882,179164,152985
20050,3288,38,37,3278,153079,178882,179164,152985
19958,3269,35,36,3275,153079,178882,179164,152985
20050,3267,37,37,3288,153079,178882,179164,152985
19683,3278,34,34,3284,153079,178882,179164,152985
20050,3270,37,34,3288,153079,178882,179164,152985
20050,3287,34,36,3275,153079,178882,179164,152985
20050,3285,38,37,3275,153079,178882,179164,152985
20050,3284,34,40,3264,153079,178882,179164,152985
20050,3278,36,37,3266,153079,178882,179164,152985
20050,3275,34,34,3268,153079,178882,179164,152985
19958,3275,38,37,3287,153079,178882,179164,152985
20050,3277,35,36,3278,153079,178882,179164,152985
19958,3289,36,37,3279,153079,178882,179164,152985
20050,3279,38,34,3273,153079,178882,179164,152985
19958,3267,36,36,3286,153079,178882,179164,152985
20050,3275,37,33,3290,153079,178882,179164,152985
19683,3277,37,36,3275,153079,178882,179164,152985
20050,3284,37,36,3273,153079,178882,179164,152985
20050,3289,34,36,3269,153079,178882,179164,152985
20050,3291,2659,35,3259,153079,178882,179164,152985
20050,3274,3244,37,3264,153079,178882,179164,152985
20050,3274,3242,37,3271,153079,178882,179164,152985
20050,3274,3242,35,3276,153079,178882,179164,152985
19958,3285,3245,33,3276,153079,178882,179164,152985
20050,3285,3244,32,3265,153079,178882,179164,152985
19958,3271,3245,1232,3275,153079,178882,179164,152985
20080,3267,3242,3237,3275,153079,178882,179164,152985
19714,3265,3245,3237,3286,153079,178882,179164,152985
20080,3259,3245,3235,3274,153079,178882,179164,152985
20080,3265,3241,3237,3283,153079,178882,179164,152985
20080,3273,3245,3235,3275,153079,178882,179164,152985
20080,3264,3243,3235,3285,153079,178882,179164,152985
19714,3266,3243,3235,3288,153079,178882,179164,152985
20080,3256,3243,3236,3286,153079,178882,179164,152985
20080,3271,3244,3235,3284,153079,178882,179164,152985
20080,3264,3241,3234,3279,153079,178882,179164,152985
19714,3266,3248,3236,3288,153079,178882,179164,152985
20080,3270,3246,3233,3278,153079,178882,179164,152985
20080,3269,3243,3236,3290,153079,178882,179164,152985
20080,3273,3244,3234,3282,153079,178882,179164,152985
20080,3271,3247,3235,3276,153079,178882,179164,152985
19714,3271,3244,3236,3276,153079,178882,179164,152985
20080,3286,3245,3233,3272,153079,178882,179164,152985
20080,3271,3246,3232,3263,153079,178882,179164,152985
20080,3290,3244,3233,3277,153079,178882,179164,152985
19714,3271,3245,3233,3253,153079,178882,179164,152985
20080,3289,3246,3239,3276,153079,178882,179164,152985
20080,3290,3244,3236,3251,153079,178882,179164,152985
20080,3275,3247,3238,3274,153079,178882,179164,152985
20080,3288,3241,3236,3258,153079,178882,179164,152985
19714,3276,3244,3235,3274,153079,178882,179164,152985
20080,3290,3246,3238,3252,153079,178882,179164,152985
20080,3276,3244,3237,3258,153079,178882,179164,152985
20080,3274,3242,3234,3260,153079,178882,179164,152985
20080,3278,3245,3236,3263,153079,178882,179164,152985
19714,3274,3244,3237,3254,153079,178882,179164,152985
20080,3277,3245,3237,3266,153079,178882,179164,152985
20080,3277,3245,3234,3271,153079,178882,179164,152985
20080,3261,3240,3236,3273,153079,178882,179164,152985
19714,3277,3246,3236,3284,153079,178882,179164,152985
20080,3255,3243,3236,3270,153079,178882,179164,152985
20080,3273,3243,3237,3286,153079,178882,179164,152985
20080,3258,3246,3237,3275,153079,178882,179164,152985
20080,3260,3244,3238,3288,153079,178882,179164,152985
19714,3252,3244,3239,3288,153079,178882,179164,152985
20080,3257,3245,3239,3286,153079,178882,179164,152985
20080,3251,3243,3240,3290,153079,178882,179164,152985
20080,3260,3247,3239,3293,153079,178882,179164,152985
20080,3274,3246,3238,3291,153079,178882,179164,152985
19714,3270,3245,3234,3278,153079,178882,179164,152985
20080,3264,3244,3237,3289,153079,178882,179164,152985
20080,3271,3243,3239,3281,153079,178882,179164,152985
20080,3270,3243,3236,3273,153079,178882,179164,152985
19714,3268,3241,3240,3280,153079,178882,179164,152985
20080,3283,3247,3237,3275,153079,178882,179164,152985
20080,3268,3242,3239,3276,153079,178882,179164,152985
20080,3287,3240,3236,3275,153079,178882,179164,152985
20080,3273,3246,3238,3262,153079,178882,179164,152985
19714,3285,3242,3241,3276,153079,178882,179164,152985
20080,3288,3243,3236,3255,153079,178882,179164,152985
20080,3286,3243,3236,3269,153079,178882,179164,152985
20080,3287,3243,3236,3260,153079,178882,179164,152985
19714,3279,3239,3236,3269,153079,178882,179164,152985
20080,3290,3240,3235,3255,153079,178882,179164,152985
20080,3276,3241,3233,3273,153079,178882,179164,152985
20080,3274,3244,3236,3262,153079,178882,179164,152985
20080,3278,3243,3237,3273,153079,178882,179164,152985
19714,3272,3241,3237,3255,153079,178882,179164,152985
20080,3276,3244,3238,3272,153079,178882,179164,152985
20080,3272,3242,3236,3256,153079,178882,179164,152985
20080,3265,3246,3235,3271,153079,178882,179164,152985
20080,3275,3245,3235,3259,153079,178882,179164,152985
19714,3255,3243,3237,3269,153079,178882,179164,152985
20080,3275,3241,3237,3279,153079,178882,179164,152985
20080,3261,3242,3236,3270,153079,178882,179164,152985
20080,3273,3243,3235,3283,153079,178882,179164,152985
19714,3261,3245,3236,3291,153079,178882,179164,152985
20080,3270,3244,3235,3285,153079,178882,179164,152985
20080,3254,3241,3237,3288,153079,178882,179164,152985
20080,3266,3243,3237,3287,153079,178882,179164,152985
20080,3261,3245,3237,3289,153079,178882,179164,152985
19714,3269,3243,3236,3293,153079,178882,179164,152985
20080,3252,3245,3239,3290,153079,178882,179164,152985
20080,3268,3244,3242,3293,153079,178882,179164,152985
20080,3269,3245,3235,3276,153079,178882,179164,152985
20080,3271,3241,3242,3294,153079,178882,179164,152985
19714,3286,3244,3238,3276,153079,178882,179164,152985
20080,3273,3246,3237,3282,153079,178882,179164,152985
20080,3288,3245,3237,3281,153079,178882,179164,152985
20080,3274,3245,3236,3263,153079,178882,179164,152985
19714,3286,3241,3240,3274,153079,178882,179164,152985
20080,3286,3244,3239,3262,153079,178882,179164,152985
20080,3286,3245,3240,3275,153079,178882,179164,152985
20080,3289,3243,3239,3265,153079,178882,179164,152985
20080,3292,3242,3236,3271,153079,178882,179164,152985
19714,3291,3243,3237,3256,153079,178882,179164,152985
20080,3282,3243,3237,3268,153079,178882,179164,152985
20080,3287,3245,3240,3265,153079,178882,179164,152985
20080,3278,3239,3236,3272,153079,178882,179164,152985
20080,3277,3242,3236,3263,153079,178882,179164,152985
19714,3275,3239,3237,3269,153079,178882,179164,152985
20080,3266,3243,3237,3258,153079,178882,179164,152985
20080,3264,3243,3233,3274,153079,178882,179164,152985
20080,3274,3243,3240,3261,153079,178882,179164,152985
19714,3260,3243,3234,3270,153079,178882,179164,152985
20080,3273,3242,3236,3272,153079,178882,179164,152985
20080,3257,3242,3239,3272,153079,178882,179164,152985
20080,3273,3244,3238,3273,153079,178882,179164,152985
20080,3260,3244,3239,3272,153079,178882,179164,152985
19714,3273,3242,3239,3269,153079,178882,179164,152985
20080,3259,3243,3239,3285,153079,178882,179164,152985
20080,3275,3240,3238,3283,153079,178882,179164,152985
20080,3263,3241,3239,3288,153079,178882,179164,152985
19714,3277,3243,3237,3288,153079,178882,179164,152985
20080,3256,3244,3237,3285,153079,178882,179164,152985
20080,3270,3244,3238,3288,153079,178882,179164,152985
20111,3262,3243,3235,3278,91415,170751,190115,91227
20050,3265,3244,3235,3276,91415,170751,190115,91227
19683,3264,3243,3239,3262,91415,170751,190115,91227
20050,3271,3245,3236,3263,91415,170751,190115,91227
20050,3278,3244,3237,3267,91415,170751,190115,91227
20050,3278,3242,3236,3258,91415,170751,190115,91227
20050,3265,3244,3241,3259,91415,170751,190115,91227
20050,3269,3246,3235,3264,91415,170751,190115,91227
20050,3266,3242,3238,3263,91415,170751,190115,91227
20050,3267,3245,3239,3266,91415,170751,190115,91227
19683,3261,3248,3237,3268,91415,170751,190115,91227
20050,3262,3244,3239,3270,91415,170751,190115,91227
20050,3268,3244,3239,3266,91415,170751,190115,91227
20050,3269,3245,3238,3266,91415,170751,190115,91227
19958,3257,3235,3238,3269,91415,170751,190115,91227
20050,3260,3246,3238,3266,91415,170751,190115,91227
19958,3262,3244,3239,3264,91415,170751,190115,91227
20050,3264,3236,3240,3267,91415,170751,190115,91227
19958,3281,3247,3239,3266,91415,170751,190115,91227
20050,3267,3244,3236,3253,91415,170751,190115,91227
20050,3261,3246,3238,3256,91415,170751,190115,91227
20050,3260,3245,3239,3250,91415,170751,190115,91227
19714,3249,3247,3243,3252,91415,170751,190115,91227
20050,3242,3245,3239,3266,91415,170751,190115,91227
20050,3239,3246,3242,3276,91415,170751,190115,91227
20050,3242,3244,3236,3259,91415,170751,190115,91227
20050,3248,3246,3239,3262,91415,170751,190115,91227
20050,3264,3246,3240,3249,91415,170751,190115,91227
20050,3272,3247,3239,3235,91415,170751,190115,91227
20050,3259,3244,3240,3226,91415,170751,190115,91227
19683,3246,3247,3239,3234,91415,170751,190115,91227
20050,3244,3249,3239,3241,91415,170751,190115,91227
20050,3228,3231,3236,3242,91415,170751,190115,91227
20050,3223,3232,3235,3259,91415,170751,190115,91227
19958,3254,3244,3240,3229,91415,170751,190115,91227
20050,3258,3242,3238,3203,91415,170751,190115,91227
20050,3244,3247,3240,3220,91415,170751,190115,91227
20080,3246,3247,3236,3235,91415,170751,190115,91227
20050,3224,3244,3237,3244,91415,170751,190115,91227
19683,3225,3246,3240,3269,91415,170751,190115,91227
20050,3239,3245,3236,3267,91415,170751,190115,91227
20050,3244,3246,3238,3261,91415,170751,190115,91227
20050,3248,3244,3239,3260,91415,170751,190115,91227
20050,3273,3246,3240,3253,91415,170751,190115,91227
20080,3250,3248,3239,3245,91415,170751,190115,91227
20050,3259,3249,3239,3246,91415,170751,190115,91227
19683,3254,3248,3241,3254,91415,170751,190115,91227
20050,3256,3247,3238,3255,91415,170751,190115,91227
20050,3247,3246,3238,3258,91415,170751,190115,91227
19958,3252,3244,3242,3254,91415,170751,190115,91227
20050,3254,3248,3237,3261,91415,170751,190115,91227
19958,3251,3242,3237,3250,91415,170751,190115,91227
20050,3251,3246,3237,3256,91415,170751,190115,91227
19958,3245,3234,3239,3262,91415,170751,190115,91227
20050,3250,3233,3240,3260,91415,170751,190115,91227
20080,3255,3247,3238,3256,91415,170751,190115,91227
20050,3262,3246,3239,3256,91415,170751,190115,91227
20050,3266,3245,3239,3265,91415,170751,190115,91227
19683,3260,3247,3239,3248,91415,170751,190115,91227
20050,3257,3246,3239,3249,91415,170751,190115,91227
20050,3252,3245,3239,3252,91415,170751,190115,91227
20050,3271,3247,3241,3258,91415,170751,190115,91227
20080,3249,3245,3237,3262,91415,170751,190115,91227
20050,3252,3243,3235,3267,91415,170751,190115,91227
20050,3256,3242,3240,3259,91415,170751,190115,91227
19683,3262,3246,3238,3254,91415,170751,190115,91227
20050,3265,3244,3237,3253,91415,170751,190115,91227
20050,3256,3243,3237,3274,91415,170751,190115,91227
20050,3262,3247,3239,3254,91415,170751,190115,91227
20050,3260,3245,3239,3252,91415,170751,190115,91227
20050,3274,3247,3240,3255,91415,170751,190115,91227
20050,3271,3243,3237,3249,91415,170751,190115,91227
20050,3258,3245,3239,3256,91415,170751,190115,91227
19683,3252,3240,3238,3253,91415,170751,190115,91227
20050,3250,3234,3241,3257,91415,170751,190115,91227
20080,3264,3245,3241,3256,91415,170751,190115,91227
20050,3265,3241,3240,3273,91415,170751,190115,91227
20080,3263,3244,3240,3256,91415,170751,190115,91227
20050,3252,3242,3237,3256,91415,170751,190115,91227
19683,3249,3246,3239,3257,91415,170751,190115,91227
20050,3256,3245,3240,3258,91415,170751,190115,91227
20050,3253,3247,3237,3263,91415,170751,190115,91227
19958,3256,3232,3237,3257,91415,170751,190115,91227
20050,3257,3236,3240,3259,91415,170751,190115,91227
20050,3263,3248,3237,3257,91415,170751,190115,91227
20050,3259,3248,3239,3260,91415,170751,190115,91227
20050,3257,3248,3239,3263,91415,170751,190115,91227
20050,3257,3248,3241,3262,91415,170751,190115,91227
19683,3260,3245,3239,3264,91415,170751,190115,91227
20050,3262,3244,3238,3268,91415,170751,190115,91227
20050,3263,3244,3240,3268,91415,170751,190115,91227
19958,3264,3249,3239,3264,91415,170751,190115,91227
20050,3260,3247,3238,3264,91415,170751,190115,91227
19958,3261,3237,3241,3267,91415,170751,190115,91227
20050,3260,3244,3240,3266,91415,170751,190115,91227
20080,3263,3244,3241,3265,91415,170751,190115,91227
20050,3276,3246,3239,3260,91415,170751,190115,91227
20050,3278,3244,3239,3259,91415,170751,190115,91227
20050,3268,3247,3240,3252,91415,170751,190115,91227
19714,3262,3247,3238,3264,91415,170751,190115,91227
20050,3260,3246,3236,3263,91415,170751,190115,91227
19958,3263,3233,3241,3264,91415,170751,190115,91227
20050,3264,3246,3240,3266,91415,170751,190115,91227
19958,3272,3244,3237,3262,91415,170751,190115,91227
20050,3256,3245,3241,3263,91415,170751,190115,91227
20080,3265,3247,3237,3275,91415,170751,190115,91227
20050,3262,3248,3238,3273,91415,170751,190115,91227
20050,3264,3246,3236,3262,91415,170751,190115,91227
20050,3270,3244,3241,3267,91415,170751,190115,91227
19714,3265,3246,3239,3264,91415,170751,190115,91227
20050,3262,3243,3238,3265,91415,170751,190115,91227
19958,3255,3245,3239,3258,91415,170751,190115,91227
20050,3256,3247,3238,3259,91415,170751,190115,91227
20050,3259,3246,3237,3261,91415,170751,190115,91227
20050,3259,3245,3239,3263,91415,170751,190115,91227
20050,3263,3244,3240,3263,91415,170751,190115,91227
20050,3265,3242,3235,3266,91415,170751,190115,91227
20050,3265,3245,3240,3264,91415,170751,190115,91227
19683,3264,3246,3239,3262,91415,170751,190115,91227
20050,3263,3245,3240,3268,91415,170751,190115,91227
19958,3263,3245,3236,3266,91415,170751,190115,91227
20050,3262,3250,3239,3269,91415,170751,190115,91227
19958,3265,3246,3237,3263,91415,170751,190115,91227
20050,3264,3246,3238,3263,91415,170751,190115,91227
19958,3264,3246,3239,3258,91415,170751,190115,91227
20050,3255,3236,3242,3261,91415,170751,190115,91227
20050,3257,3238,3238,3263,91415,170751,190115,91227
20050,3262,3245,3238,3265,91415,170751,190115,91227
20050,3261,3245,3240,3263,91415,170751,190115,91227
20080,3273,3245,3235,3268,91415,170751,190115,91227
20050,3276,3245,3239,3266,91415,170751,190115,91227
19683,3267,3245,3241,3255,91415,170751,190115,91227
20050,3268,3247,3242,3263,91415,170751,190115,91227
20050,3266,3248,3241,3265,91415,170751,190115,91227
20050,3268,3247,3242,3262,91415,170751,190115,91227
20050,3255,3235,3239,3265,91415,170751,190115,91227
20050,3263,3235,3238,3266,91415,170751,190115,91227
20050,3266,3233,3239,3266,91415,170751,190115,91227
19683,3264,3245,3239,3266,91415,170751,190115,91227
20050,3265,3248,3239,3267,91415,170751,190115,91227
19958,3258,3246,3239,3263,91415,170751,190115,91227
20050,3256,3244,3243,3263,91415,170751,190115,91227
20050,3258,3247,3238,3267,91415,170751,190115,91227
20050,3260,3249,3240,3268,91415,170751,190115,91227
20080,3276,3243,3239,3266,91415,170751,190115,91227
20050,3273,3244,3240,3264,91415,170751,190115,91227
20050,3271,3240,3240,3258,91415,170751,190115,91227
19714,3267,3247,3238,3264,91415,170751,190115,91227
19958,3258,3246,3243,3266,91415,170751,190115,91227
20050,3258,3245,3238,3263,91415,170751,190115,91227
20080,3264,3244,3241,1448,62980,136112,173712,62980
20050,1453,37,3237,1460,62980,136112,173712,62980
20050,1447,41,3239,1433,62980,136112,173712,62980
20050,1434,46,3236,1422,62980,136112,173712,62980
20050,1402,43,3241,1430,62980,136112,173712,62980
19683,1432,43,3238,1462,62980,136112,173712,62980
20050,1464,48,3238,1460,62980,136112,173712,62980
20050,1433,40,3241,1418,62980,136112,173712,62980
20050,1423,43,3239,1452,62980,136112,173712,62980
20050,1438,32,3240,1456,62980,136112,173712,62980
20050,1454,39,3239,1445,62980,136112,173712,62980
20050,1439,36,3237,1430,62980,136112,173712,62980
20050,1417,50,3240,1425,62980,136112,173712,62980
19683,1439,50,3238,1446,62980,136112,173712,62980
19958,1433,40,3242,1447,62980,136112,173712,62980
20050,1450,38,3241,1449,62980,136112,173712,62980
20050,1447,32,3239,1432,62980,136112,173712,62980
20050,1416,41,3239,1430,62980,136112,173712,62980
20050,1446,41,3237,1472,62980,136112,173712,62980
20050,1462,52,3236,1454,62980,136112,173712,62980
20050,1436,49,3238,1407,62980,136112,173712,62980
20050,1408,44,3242,1454,62980,136112,173712,62980
19683,1451,37,3240,1474,62980,136112,173712,62980
20324,1480,39,3239,1450,62980,136112,173712,62980
19683,1431,36,3239,1419,62980,136112,173712,62980
20324,1418,51,3239,1436,62980,136112,173712,62980
19683,1448,48,3239,1472,62980,136112,173712,62980
20324,1458,27,3243,1449,62980,136112,173712,62980
19683,1456,42,3237,1447,62980,136112,173712,62980
20050,1433,43,3240,1442,62980,136112,173712,62980
20050,1439,53,3238,1441,62980,136112,173712,62980
20050,1447,41,3239,1466,62980,136112,173712,62980
20050,1453,53,3240,1444,62980,136112,173712,62980
20050,1445,39,3239,1433,62980,136112,173712,62980
20050,1423,38,3239,1454,62980,136112,173712,62980
19683,1449,26,3239,1461,62980,136112,173712,62980
20324,1459,52,3241,1452,62980,136112,173712,62980
19683,1438,52,3237,1427,62980,136112,173712,62980
20324,1435,38,3241,1447,62980,136112,173712,62980
19683,1440,39,3239,1466,62980,136112,173712,62980
20050,1461,27,3240,1455,62980,136112,173712,62980
20050,1449,42,3237,1438,62980,136112,173712,62980
20050,1428,41,3238,1432,62980,136112,173712,62980
20050,1436,50,3238,1451,62980,136112,173712,62980
20050,1455,49,3241,1477,62980,136112,173712,62980
20050,1464,48,3239,1429,62980,136112,173712,62980
19683,1424,39,3237,1428,62980,136112,173712,62980
20050,1430,40,3241,1468,62980,136112,173712,62980
20050,1475,33,3237,1469,62980,136112,173712,62980
20050,1451,37,3242,1434,62980,136112,173712,62980
20050,1420,37,3238,1417,62980,136112,173712,62980
20050,1425,43,3241,1459,62980,136112,173712,62980
20050,1449,52,3238,1453,62980,136112,173712,62980
20050,1456,51,3238,1447,62980,136112,173712,62980
19683,1437,48,3241,1437,62980,136112,173712,62980
20050,1432,49,3239,1429,62980,136112,173712,62980
20050,1430,43,3239,1451,62980,136112,173712,62980
20050,1453,34,3237,1464,62980,136112,173712,62980
20050,1461,34,3239,1433,62980,136112,173712,62980
20050,1414,38,3240,1422,62980,136112,173712,62980
20050,1430,53,3237,1452,62980,136112,173712,62980
20050,1462,52,3241,1469,62980,136112,173712,62980
19683,1460,50,3239,1424,62980,136112,173712,62980
20050,1424,41,3237,1426,62980,136112,173712,62980
20050,1426,45,3237,1466,62980,136112,173712,62980
20050,1467,34,3239,1462,62980,136112,173712,62980
20050,1459,34,3239,1447,62980,136112,173712,62980
20050,1427,35,3237,1434,62980,136112,173712,62980
20050,1447,47,3240,1460,62980,136112,173712,62980
19683,1448,40,3233,1473,62980,136112,173712,62980
20050,1475,55,3236,1456,62980,136112,173712,62980
20050,1455,45,3238,1429,62980,136112,173712,62980
20050,1416,58,3237,1440,62980,136112,173712,62980
20050,1450,44,3237,1462,62980,136112,173712,62980
20050,1455,42,3236,1452,62980,136112,173712,62980
20050,1438,29,3238,1421,62980,136112,173712,62980
20050,1421,41,3240,1440,62980,136112,173712,62980
19683,1426,39,3237,1450,62980,136112,173712,62980
20050,1458,55,3239,1461,62980,136112,173712,62980
20050,1441,45,3241,1435,62980,136112,173712,62980
20050,1426,57,3239,1427,62980,136112,173712,62980
20050,1431,43,3240,1438,62980,136112,173712,62980
20050,1431,40,3239,1451,62980,136112,173712,62980
20050,1463,29,3234,1447,62980,136112,173712,62980
19683,1435,45,3240,1410,62980,136112,173712,62980
20050,1402,35,3237,1428,62980,136112,173712,62980
20050,1446,52,3239,1474,62980,136112,173712,62980
20050,1460,49,3238,1424,62980,136112,173712,62980
20050,1416,60,3235,1411,62980,136112,173712,62980
20050,1399,55,3238,1434,62980,136112,173712,62980
20050,1439,55,3235,1450,62980,136112,173712,62980
20050,1450,45,3239,1434,62980,136112,173712,62980
19683,1420,45,3237,1412,62980,136112,173712,62980
20050,1420,39,3234,1434,62980,136112,173712,62980
20050,1426,45,3240,1426,62980,136112,173712,62980
20050,1425,49,3238,1435,62980,136112,173712,62980
20050,1434,59,3235,1435,62980,136112,173712,62980
20050,1418,53,3239,1407,62980,136112,173712,62980
20050,1414,53,3242,1429,62980,136112,173712,62980
19683,1424,46,3241,1446,62980,136112,173712,62980
20050,1443,43,3240,1425,62980,136112,173712,62980
20050,1417,39,3237,1412,62980,136112,173712,62980
20050,1397,42,3237,1415,62980,136112,173712,62980
20050,1430,44,3240,1446,62980,136112,173712,62980
20050,1441,47,3242,1438,62980,136112,173712,62980
20050,1423,59,3239,1418,62980,136112,173712,62980
20050,1422,61,3239,1439,62980,136112,173712,62980
19683,1430,60,3240,1430,62980,136112,173712,62980
20050,1446,59,3238,1447,62980,136112,173712,62980
20050,1431,58,3238,1411,62980,136112,173712,62980
20050,1401,40,3239,1415,62980,136112,173712,62980
20050,1421,45,3241,1460,62980,136112,173712,62980
20050,1457,46,3242,1448,62980,136112,173712,62980
20050,1441,65,3238,1410,62980,136112,173712,62980
19683,1401,60,3242,1433,62980,136112,173712,62980
20050,1440,58,3239,1456,62980,136112,173712,62980
20050,1460,47,3239,1456,62980,136112,173712,62980
20050,1428,55,3239,1414,62980,136112,173712,62980
20050,1414,38,3240,1424,62980,136112,173712,62980
20050,1420,42,3240,1441,62980,136112,173712,62980
20050,1438,42,3238,1436,62980,136112,173712,62980
20050,1439,57,3240,1441,62980,136112,173712,62980
19683,1427,46,3241,1423,62980,136112,173712,62980
20050,1422,69,3240,1422,62980,136112,173712,62980
20050,1414,54,3240,1457,62980,136112,173712,62980
20050,1461,68,3239,1453,62980,136112,173712,62980
20050,1443,50,3241,1416,62980,136112,173712,62980
20050,1395,49,3238,1411,62980,136112,173712,62980
20050,1424,36,3246,1455,62980,136112,173712,62980
19683,1454,52,3240,1465,62980,136112,173712,62980
20050,1445,45,3240,1400,62980,136112,173712,62980
20050,1394,63,3240,1420,62980,136112,173712,62980
20050,1424,50,3239,1443,62980,136112,173712,62980
20050,1449,61,3239,1447,62980,136112,173712,62980
20050,1433,44,3237,1435,62980,136112,173712,62980
20050,1427,46,3239,1413,62980,136112,173712,62980
20050,1418,35,3241,1436,62980,136112,173712,62980
19683,1431,49,3241,1448,62980,136112,173712,62980
20050,1455,40,3241,1433,62980,136112,173712,62980
20050,1417,56,3239,1414,62980,136112,173712,62980
20050,1412,41,3237,1430,62980,136112,173712,62980
20050,1433,67,3237,1452,62980,136112,173712,62980
20050,1444,65,3236,1438,62980,136112,173712,62980
20050,1435,62,3237,1421,62980,136112,173712,62980
19683,1411,50,3241,1434,62980,136112,173712,62980
20050,1437,48,3240,1441,62980,136112,173712,62980
20050,1447,42,3239,1454,62980,136112,173712,62980
20050,1435,54,3238,1424,62980,136112,173712,62980
20050,1425,53,3239,1421,62980,136112,173712,62980
20050,1413,64,3240,1446,62980,136112,173712,62980
20080,1453,52,3239,1496,63356,138086,155617,63591
19683,1481,1407,38,1467,63356,138086,155617,63591
20050,1431,1404,39,1437,63356,138086,155617,63591
20050,1444,1419,32,1485,63356,138086,155617,63591
20050,1471,1488,41,1506,63356,138086,155617,63591
20050,1483,1491,43,1467,63356,138086,155617,63591
20050,1454,1483,52,1471,63356,138086,155617,63591
20050,1460,1546,52,1499,63356,138086,155617,63591
20050,1493,1584,56,1485,63356,138086,155617,63591
19683,1458,1606,47,1469,63356,138086,155617,63591
20050,1449,1660,51,1458,63356,138086,155617,63591
20050,1453,1651,45,1481,63356,138086,155617,63591
20050,1457,1669,42,1476,63356,138086,155617,63591
20050,1479,1616,38,1487,63356,138086,155617,63591
20050,1466,1682,50,1466,63356,138086,155617,63591
20050,1443,1672,47,1462,63356,138086,155617,63591
19683,1453,1683,57,1486,63356,138086,155617,63591
20050,1469,1708,46,1496,63356,138086,155617,63591
20050,1485,1733,47,1467,63356,138086,155617,63591
20050,1435,1702,37,1454,63356,138086,155617,63591
20050,1448,1727,34,1479,63356,138086,155617,63591
20050,1471,1708,33,1490,63356,138086,155617,63591
20050,1461,1743,41,1461,63356,138086,155617,63591
20050,1455,1662,43,1457,63356,138086,155617,63591
19683,1439,1696,55,1465,63356,138086,155617,63591
20050,1451,1689,53,1482,63356,138086,155617,63591
20050,1484,1719,59,1477,63356,138086,155617,63591
20050,1439,1682,45,1424,63356,138086,155617,63591
20050,1428,1684,46,1454,63356,138086,155617,63591
20050,1451,1707,40,1490,63356,138086,155617,63591
20050,1471,1700,38,1466,63356,138086,155617,63591
20050,1455,1636,44,1455,63356,138086,155617,63591
19683,1428,1651,49,1459,63356,138086,155617,63591
20050,1464,1650,48,1493,63356,138086,155617,63591
20050,1459,1703,55,1473,63356,138086,155617,63591
20050,1447,1701,45,1453,63356,138086,155617,63591
20050,1451,1728,46,1472,63356,138086,155617,63591
20050,1457,1725,35,1459,63356,138086,155617,63591
20050,1453,1666,34,1478,63356,138086,155617,63591
19683,1465,1702,35,1488,63356,138086,155617,63591
20050,1456,1675,45,1435,63356,138086,155617,63591
20050,1429,1642,44,1464,63356,138086,155617,63591
20050,1452,1679,52,1483,63356,138086,155617,63591
20050,1484,1685,57,1480,63356,138086,155617,63591
20050,1452,1713,55,1447,63356,138086,155617,63591
20050,1425,1675,45,1457,63356,138086,155617,63591
20050,1465,1703,43,1497,63356,138086,155617,63591
19683,1476,1718,43,1469,63356,138086,155617,63591
20050,1454,1656,41,1454,63356,138086,155617,63591
20050,1436,1697,50,1480,63356,138086,155617,63591
20050,1471,1734,47,1488,63356,138086,155617,63591
20050,1479,1754,56,1508,63356,138086,155617,63591
20050,1468,1801,58,1469,63356,138086,155617,63591
20050,1461,1822,50,1472,63356,138086,155617,63591
19683,1459,1850,41,1497,63356,138086,155617,63591
20050,1491,1869,39,1495,63356,138086,155617,63591
20050,1492,1858,38,1490,63356,138086,155617,63591
20050,1459,1880,45,1463,63356,138086,155617,63591
20050,1466,1854,42,1486,63356,138086,155617,63591
20050,1478,1907,52,1509,63356,138086,155617,63591
20050,1489,1918,53,1486,63356,138086,155617,63591
20050,1474,1916,57,1477,63356,138086,155617,63591
19683,1457,1953,48,1483,63356,138086,155617,63591
20050,1486,1997,47,1507,63356,138086,155617,63591
20050,1497,2014,36,1531,63356,138086,155617,63591
20050,1501,2020,40,1471,63356,138086,155617,63591
20050,1463,1984,40,1474,63356,138086,155617,63591
20050,1462,2074,49,1520,63356,138086,155617,63591
20050,1518,2034,48,1508,63356,138086,155617,63591
19683,1474,1745,53,1433,63356,138086,155617,63591
20050,1371,1397,44,1342,63356,138086,155617,63591
20050,1342,969,901,1331,63356,138086,155617,63591
20050,1281,44,876,1115,63356,138086,155617,63591
20050,1039,53,30,709,63356,138086,155617,63591
19897,579,44,48,445,63356,138086,155617,63591
20263,391,49,32,277,63356,138086,155617,63591
19897,226,41,47,80,63356,138086,155617,63591
20019,38,47,40,38,63356,138086,155617,63591
19897,35,33,46,35,63356,138086,155617,63591
19897,39,50,43,38,63356,138086,155617,63591
20263,33,42,47,34,63356,138086,155617,63591
19897,37,53,45,38,63356,138086,155617,63591
20019,34,42,30,33,63356,138086,155617,63591
19897,35,43,44,35,63356,138086,155617,63591
19897,35,40,35,33,63356,138086,155617,63591
20263,31,56,41,32,63356,138086,155617,63591
20019,33,48,39,32,63356,138086,155617,63591
19897,31,42,47,33,63356,138086,155617,63591
19897,37,41,41,32,63356,138086,155617,63591
19897,33,38,48,33,63356,138086,155617,63591
20263,36,42,38,31,63356,138086,155617,63591
19897,35,41,54,35,63356,138086,155617,63591
19897,35,38,42,35,63356,138086,155617,63591
20263,35,50,51,35,63356,138086,155617,63591
19897,35,44,41,34,63356,138086,155617,63591
20019,36,34,39,36,63356,138086,155617,63591
19897,37,43,33,33,63356,138086,155617,63591
19897,35,26,40,35,63356,138086,155617,63591
20263,36,52,31,33,63356,138086,155617,63591
19897,32,34,49,33,63356,138086,155617,63591
20019,32,53,55,34,63356,138086,155617,63591
19897,33,37,42,32,63356,138086,155617,63591
20263,33,47,42,32,63356,138086,155617,63591
19897,32,30,38,35,63356,138086,155617,63591
19897,32,42,43,35,63356,138086,155617,63591
19897,34,28,39,32,63356,138086,155617,63591
20263,33,50,43,32,63356,138086,155617,63591
19897,32,34,48,33,63356,138086,155617,63591
19897,32,51,41,32,63356,138086,155617,63591
20019,46,42,32,31,63356,138086,155617,63591
19897,31,37,40,32,63356,138086,155617,63591
20263,33,37,29,31,63356,138086,155617,63591
19897,33,48,37,31,63356,138086,155617,63591
19897,31,38,29,37,63356,138086,155617,63591
20019,36,37,3246,39,63356,138086,155617,63591
20263,352,75,3237,1060,63356,138086,155617,63591
19683,1200,2272,3236,1490,63356,138086,155617,63591
20050,1530,3225,3236,1673,63356,138086,155617,63591
20050,1695,3229,3247,1758,63356,138086,155617,63591
20050,1757,3242,3245,1799,63356,138086,155617,63591
20050,1777,3239,3249,1790,63356,138086,155617,63591
20050,1770,3245,3252,1781,63356,138086,155617,63591
20050,1765,3264,3241,1792,63356,138086,155617,63591
19683,1782,3252,3225,1799,63356,138086,155617,63591
20050,1793,3257,3227,1778,63356,138086,155617,63591
20050,1752,3240,3230,1749,63356,138086,155617,63591
20050,1742,3242,3234,1771,63356,138086,155617,63591
20050,1753,3230,3237,1771,63356,138086,155617,63591
20050,1759,3238,3248,1758,63356,138086,155617,63591
20050,1739,3236,3254,1749,63356,138086,155617,63591
20050,1719,3249,3250,1742,63356,138086,155617,63591
19683,1733,3249,3239,1763,63356,138086,155617,63591
20050,1751,3252,3241,1759,63356,138086,155617,63591
20050,1736,3243,3235,1719,63356,138086,155617,63591
20050,1704,3245,3233,1733,63356,138086,155617,63591
20050,1717,3230,3229,1750,63356,138086,155617,63591
20050,1746,3240,3245,1750,63356,138086,155617,63591
20050,1715,3234,3247,1711,63356,138086,155617,63591
19683,1699,3247,3252,1722,63356,138086,155617,63591
20050,1717,3245,3236,1753,63356,138086,155617,63591
20050,1733,3265,3238,1732,63356,138086,155617,63591
20050,1721,3239,3219,1734,63356,138086,155617,63591
20050,1712,3253,3224,1735,63356,138086,155617,63591
20050,1721,3242,3219,1733,63356,138086,155617,63591
20050,1717,3239,3232,1750,63356,138086,155617,63591
20050,1731,3221,3236,1740,63356,138086,155617,63591
19683,1732,3235,3248,1725,63356,138086,155617,63591
20050,1702,3235,3242,1722,63356,138086,155617,63591
20050,1720,3255,3253,1748,63356,138086,155617,63591
20050,1742,3240,3235,1755,63356,138086,155617,63591
20080,1725,3263,3236,3272,67727,152374,167414,67962
20050,3277,3256,3229,3274,67727,152374,167414,67962
20050,3277,3256,3229,3278,67727,152374,167414,67962
19683,3269,3243,3230,3276,67727,152374,167414,67962
20050,3270,3245,3230,3276,67727,152374,167414,67962
20050,3276,3231,3242,3276,67727,152374,167414,67962
20050,3275,3230,3241,3279,67727,152374,167414,67962
20050,3279,3231,3238,3277,67727,152374,167414,67962
20050,3277,3236,3243,3275,67727,152374,167414,67962
20050,3274,3255,3242,3289,67727,152374,167414,67962
19683,3277,3253,3239,3290,67727,152374,167414,67962
20050,3280,3248,3242,3278,67727,152374,167414,67962
20050,3280,3236,3241,3278,67727,152374,167414,67962
20050,3277,3238,3239,3275,67727,152374,167414,67962
20050,3288,3242,3240,3275,67727,152374,167414,67962
20050,3277,3242,3246,3276,67727,152374,167414,67962
20050,3275,3234,3238,3275,67727,152374,167414,67962
20050,3278,3251,3242,3272,67727,152374,167414,67962
19683,3275,3255,3228,3270,67727,152374,167414,67962
20050,3279,3258,3230,3281,67727,152374,167414,67962
20050,3274,3246,3228,3280,67727,152374,167414,67962
20050,3272,3245,3228,3277,67727,152374,167414,67962
20050,3270,3233,3230,3279,67727,152374,167414,67962
20050,3279,3232,3244,3278,67727,152374,167414,67962
20050,3275,3232,3240,3280,67727,152374,167414,67962
19683,3280,3238,3244,3281,67727,152374,167414,67962
20050,3276,3243,3235,3278,67727,152374,167414,67962
20050,3276,3255,3243,3291,67727,152374,167414,67962
20050,3279,3245,3243,3290,67727,152374,167414,67962
20050,3276,3248,3242,3276,67727,152374,167414,67962
20050,3277,3236,3244,3277,67727,152374,167414,67962
20050,3288,3235,3242,3279,67727,152374,167414,67962
20050,3285,3241,3240,3280,67727,152374,167414,67962
19683,3277,3240,3242,3278,67727,152374,167414,67962
20050,3276,3236,3242,3275,67727,152374,167414,67962
20050,3277,3252,3242,3271,67727,152374,167414,67962
20050,3281,3251,3230,3276,67727,152374,167414,67962
20050,3281,3252,3230,3276,67727,152374,167414,67962
20050,3278,3247,3234,3281,67727,152374,167414,67962
20050,3273,3244,3229,3277,67727,152374,167414,67962
19683,3277,3232,3230,3277,67727,152374,167414,67962
20050,3278,3233,3241,3279,67727,152374,167414,67962
20050,3279,3234,3243,3279,67727,152374,167414,67962
20050,3279,3246,3242,3278,67727,152374,167414,67962
20050,3276,3248,3230,3280,67727,152374,167414,67962
20050,3278,3258,3244,3284,67727,152374,167414,67962
20050,3279,3248,3244,3289,67727,152374,167414,67962
20050,3277,3246,3239,3275,67727,152374,167414,67962
19683,3277,3233,3242,3277,67727,152374,167414,67962
20050,3278,3236,3241,3277,67727,152374,167414,67962
20050,3279,3242,3241,3283,67727,152374,167414,67962
20050,3275,3246,3241,3278,67727,152374,167414,67962
20050,3278,3245,3240,3274,67727,152374,167414,67962
20050,3278,3252,3242,3273,67727,152374,167414,67962
20050,3277,3256,3230,3277,67727,152374,167414,67962
20050,3280,3255,3231,3280,67727,152374,167414,67962
19683,3272,3242,3232,3282,67727,152374,167414,67962
20050,3272,3234,3236,3278,67727,152374,167414,67962
20050,3278,3238,3243,3278,67727,152374,167414,67962
20050,3276,3240,3242,3280,67727,152374,167414,67962
20050,3279,3236,3244,3283,67727,152374,167414,67962
20050,3277,3241,3242,3279,67727,152374,167414,67962
20050,3278,3258,3243,3279,67727,152374,167414,67962
19683,3280,3256,3242,3291,67727,152374,167414,67962
20050,3278,3246,3244,3281,67727,152374,167414,67962
20050,3279,3241,3246,3281,67727,152374,167414,67962
20050,3281,3236,3242,3282,67727,152374,167414,67962
20050,3287,3237,3245,3276,67727,152374,167414,67962
20050,3280,3243,3242,3275,67727,152374,167414,67962
20050,3277,3238,3240,3279,67727,152374,167414,67962
20050,3278,3254,3241,3271,67727,152374,167414,67962
19683,3277,3256,3240,3270,67727,152374,167414,67962
20050,3279,3257,3234,3279,67727,152374,167414,67962
20050,3276,3249,3229,3280,67727,152374,167414,67962
20050,3270,3248,3227,3282,67727,152374,167414,67962
20050,3270,3236,3231,3279,67727,152374,167414,67962
20050,3279,3230,3242,3280,67727,152374,167414,67962
20050,3279,3228,3242,3279,67727,152374,167414,67962
19683,3278,3245,3242,3281,67727,152374,167414,67962
20050,3277,3239,3232,3278,67727,152374,167414,67962
20050,3275,3261,3243,3279,67727,152374,167414,67962
20050,3278,3248,3243,3289,67727,152374,167414,67962
20050,3281,3250,3245,3277,67727,152374,167414,67962
20050,3280,3234,3239,3282,67727,152374,167414,67962
20050,3278,3238,3241,3280,67727,152374,167414,67962
20050,3285,3241,3237,3281,67727,152374,167414,67962
19683,3278,3244,3243,3279,67727,152374,167414,67962
20050,3280,3241,3242,3282,67727,152374,167414,67962
20050,3278,3253,3245,3272,67727,152374,167414,67962
20050,3280,3254,3239,3273,67727,152374,167414,67962
20050,3277,3261,3230,3276,67727,152374,167414,67962
20050,3280,3245,3232,3280,67727,152374,167414,67962
20050,3271,3244,3233,3278,67727,152374,167414,67962
19683,3272,3232,3234,3281,67727,152374,167414,67962
20050,3280,3231,3241,3280,67727,152374,167414,67962
20050,3281,3236,3243,3277,67727,152374,167414,67962
20050,3277,3244,3241,3280,67727,152374,167414,67962
20050,3277,3244,3231,3283,67727,152374,167414,67962
20050,3277,3257,3244,3282,67727,152374,167414,67962
20050,3278,3246,3244,3289,67727,152374,167414,67962
20050,3278,3249,3243,3280,67727,152374,167414,67962
19683,3278,3241,3243,3282,67727,152374,167414,67962
20050,3278,3232,3243,3282,67727,152374,167414,67962
20050,3279,3249,3244,3278,67727,152374,167414,67962
20050,3278,3247,3246,3280,67727,152374,167414,67962
20050,3277,3245,3247,3281,67727,152374,167414,67962
20050,3281,3251,3243,3269,67727,152374,167414,67962
20050,3280,3259,3242,3274,67727,152374,167414,67962
19683,3280,3258,3232,3278,67727,152374,167414,67962
20050,3279,3247,3234,3276,67727,152374,167414,67962
20050,3271,3236,3234,3279,67727,152374,167414,67962
20050,3280,3241,3245,3278,67727,152374,167414,67962
20050,3276,3236,3241,3280,67727,152374,167414,67962
20050,3280,3235,3241,3278,67727,152374,167414,67962
20050,3279,3243,3246,3278,67727,152374,167414,67962
20050,3277,3255,3237,3280,67727,152374,167414,67962
19683,3276,3255,3243,3278,67727,152374,167414,67962
20050,3278,3246,3243,3278,67727,152374,167414,67962
20050,3279,3237,3242,3277,67727,152374,167414,67962
20050,3278,3237,3241,3281,67727,152374,167414,67962
20050,3277,3236,3242,3279,67727,152374,167414,67962
20050,3275,3242,3244,3277,67727,152374,167414,67962
20050,3277,3244,3240,3280,67727,152374,167414,67962
19683,3277,3255,3243,3277,67727,152374,167414,67962
20050,3278,3252,3240,3270,67727,152374,167414,67962
20050,3280,3257,3243,3279,67727,152374,167414,67962
20050,3281,3247,3232,3279,67727,152374,167414,67962
20050,3277,3250,3229,3279,67727,152374,167414,67962
20050,3269,3234,3227,3275,67727,152374,167414,67962
20050,3279,3233,3243,3278,67727,152374,167414,67962
20050,3280,3230,3239,3278,67727,152374,167414,67962
19683,3276,3242,3242,3280,67727,152374,167414,67962
20050,3280,3243,3233,3279,67727,152374,167414,67962
20050,3277,3257,3233,3278,67727,152374,167414,67962
20050,3277,3246,3243,3282,67727,152374,167414,67962
20050,3279,3250,3244,3282,67727,152374,167414,67962
20050,3279,3232,3240,3280,67727,152374,167414,67962
20050,3282,3233,3243,3276,67727,152374,167414,67962
19683,3281,3234,3243,3282,67727,152374,167414,67962
