7995,25,19,221,24,16337,15923,21276,16346
7995,18,27,175,19,16337,15923,21276,16346
7995,27,24,760,16,16337,15923,21276,16346
7995,20,31,227,142,16337,15923,21276,16346
7995,17,25,25,21,16337,15923,21276,16346
7995,27,20,803,13,16337,15923,21276,16346
7995,28,14,446,68,16337,15923,21276,16346
7995,26,25,25,27,16337,15923,21276,16346
7995,16,25,513,21,16337,15923,21276,16346
7995,120,27,589,18,16337,15923,21276,16346
7995,24,21,66,73,16337,15923,21276,16346
7995,17,29,164,21,16337,15923,21276,16346
7995,23,24,618,16,16337,15923,21276,16346
7995,27,6,218,25,16337,15923,21276,16346
7995,26,26,21,21,16337,15923,21276,16346
7995,16,23,483,20,16337,15923,21276,16346
7995,25,23,375,16,16337,15923,21276,16346
7995,20,29,22,23,16337,15923,21276,16346
7995,13,22,424,24,16337,15923,21276,16346
7995,23,25,625,14,16337,15923,21276,16346
7995,27,10,61,25,16337,15923,21276,16348148,1470,1227,1113,1472,6345,10490,15054
,6345
7751,1461,1176,1112,1488,6345,10490,15054,6345
8117,1463,1213,1098,1478,6345,10490,15054,6345
8117,1466,1173,1114,1469,6345,10490,15054,6345
7751,1461,1188,1073,1483,6345,10490,15054,6345
8117,1461,1167,1112,1480,6345,10490,15054,6345
8087,1459,1188,1112,1474,6345,10490,15054,6345
8117,1459,1189,1117,1487,6345,10490,15054,6345
7751,1469,1174,1137,1487,6345,10490,15054,6345
8117,1463,1230,1142,1475,6345,10490,15054,6345
8117,1467,1210,1137,1491,6345,10490,15054,6345
7751,1468,1232,1162,1485,6345,10490,15054,6345
8117,1464,1197,1143,1476,6345,10490,15054,6345
8117,1461,1221,1166,1465,6345,10490,15054,6345
7751,1458,1204,1144,1485,6345,10490,15054,6345
8117,1465,1244,1134,1477,6345,10490,15054,6345
8117,1460,1199,1156,1474,6345,10490,15054,6345
7751,1470,1245,1130,1483,6345,10490,15054,6345
8117,1466,1205,1151,1478,6345,10490,15054,6345
8117,1466,1219,1145,1473,6345,10490,15054,6345
7751,1463,1217,1118,1484,6345,10490,15054,6345
8117,1464,1204,1142,1479,6345,10490,15054,6345
8117,1458,1215,1142,1472,6345,10490,15054,6345
8117,1464,1209,1095,1479,6345,10490,15054,6345
7751,1471,1198,1143,1478,6345,10490,15054,6345
8087,1464,1190,1100,1476,6345,10490,15054,6345
8117,1467,1215,1140,1482,6345,10490,15054,6345
7751,1463,1197,1135,1484,6345,10490,15054,6345
8117,1468,1235,1131,1475,6345,10490,15054,6345
8117,1466,1201,1160,1488,6345,10490,15054,6345
7751,1461,1240,1130,1482,6345,10490,15054,6345
8117,1465,1199,1155,1475,6345,10490,15054,6345
8117,1461,1230,1155,1473,6345,10490,15054,6345
7751,1469,1204,1131,1482,6345,10490,15054,6345
8117,1460,1204,1153,1478,6345,10490,15054,6345
8117,1466,1227,1160,1470,6345,10490,15054,6345
7751,1459,1224,1134,1489,6345,10490,15054,6345
8117,1464,1208,1155,1480,6345,10490,15054,6345
8117,1468,1226,1107,1475,6345,10490,15054,6345
7751,1464,1222,1152,1492,6345,10490,15054,6345
8117,1466,1194,1153,1480,6345,10490,15054,6345
8117,1466,1229,1151,1474,6345,10490,15054,6345
8117,1466,1201,1152,1484,6345,10490,15054,6345
7751,1461,1247,1155,1483,6345,10490,15054,6345
8087,1462,1204,1153,1477,6345,10490,15054,6345
8117,1467,1226,1157,1488,6345,10490,15054,6345
7751,1467,1208,1132,1487,6345,10490,15054,6345
8117,1464,1208,1163,1476,6345,10490,15054,6345
8117,1462,1227,1158,1471,6345,10490,15054,6345
7751,1468,1249,1135,1485,6345,10490,15054,6345
8117,1464,1208,1153,1475,6345,10490,15054,6345
8117,1466,1230,1115,1470,6345,10490,15054,6345
7751,1458,1226,1158,1486,6345,10490,15054,6345
8117,1465,1206,1150,1480,6345,10490,15054,6345
8117,1465,1225,1148,1474,6345,10490,15054,6345
7751,1458,1203,1152,1491,6345,10490,15054,6345
8117,1470,1251,1147,1480,6345,10490,15054,6345
8117,1466,1226,1125,1476,6345,10490,15054,6345
8117,1469,1220,1144,1485,6345,10490,15054,6345
7751,1466,1202,1120,1482,6345,10490,15054,6345
8117,1469,1218,1146,1471,6345,10490,15054,6345
8117,1466,1214,1138,1485,6345,10490,15054,6345
7751,1465,1239,1115,1476,6345,10490,15054,6345
8087,1467,1197,1137,1475,6345,10490,15054,6345
8117,1461,1209,1093,1467,6345,10490,15054,6345
7751,1464,1187,1134,1485,6345,10490,15054,6345
8117,1465,1186,1139,1479,6345,10490,15054,6345
8117,1460,1210,1137,1472,6345,10490,15054,6345
7751,1466,1189,1139,1488,6345,10490,15054,6345
8117,1463,1230,1134,1477,6345,10490,15054,6345
8117,1469,1201,1099,1470,6345,10490,15054,6345
7751,1464,1193,1117,1494,6345,10490,15054,6345
8117,1465,1172,1087,1478,6345,10490,15054,6345
8117,1460,1186,1102,1474,6345,10490,15054,6345
8117,1464,1181,1098,1485,6345,10490,15054,6345
7751,1462,1197,1068,1481,6345,10490,15054,6345
8117,1462,1155,1085,1474,6345,10490,15054,6345
8117,1469,1171,1037,1486,6345,10490,15054,6345
7751,1462,1152,1074,1483,6345,10490,15054,6345
8117,1466,1144,1060,1473,6345,10490,15054,6345
8117,1469,1162,1067,1486,6345,10490,15054,6345
7751,1465,1152,1066,1481,6345,10490,15054,6345
8117,1464,1180,1067,1475,6345,10490,15054,6345
8117,1471,1161,1018,1486,6345,10490,15054,6345
7751,1461,1143,1058,1483,6345,10490,15054,6345
8087,1466,1136,1036,1476,6345,10490,15054,6345
8117,1467,1155,1051,1474,6345,10490,15054,6345
7751,1460,1150,1049,1495,6345,10490,15054,6345
8117,1463,1168,1017,1476,6345,10490,15054,6345
8117,1460,1125,1033,1473,6345,10490,15054,6345
8117,1462,1142,987,1483,6345,10490,15054,6345
7751,1467,1125,1023,1478,6345,10490,15054,6345
8117,1466,1132,1014,1476,6345,10490,15054,6345
8117,1466,1139,1019,1485,6345,10490,15054,6345
7751,1458,1121,1019,1479,6345,10490,15054,6345
8117,1466,1165,1030,1473,6345,10490,15054,6345
8117,1466,1142,986,1484,6345,10490,15054,6345
7751,1466,1128,1036,1481,6345,10490,15054,6345
8117,1463,1124,1008,1472,6345,10490,15054,6345
8117,1459,1144,1028,1489,6345,10490,15054,6345
7751,1466,1120,1024,1480,6345,10490,15054,6345
8117,1463,1156,990,1479,6345,10490,15054,6345
8117,1467,1101,994,1474,6345,10490,15054,6345
7751,1466,1146,989,1490,6345,10490,15054,6345
8087,1463,1095,987,1481,6345,10490,15054,6345
8117,1461,1113,978,1477,6345,10490,15054,6345
8117,1469,1112,981,1483,6345,10490,15054,6345
7751,1469,1098,987,1480,6345,10490,15054,6345
8117,1466,1118,990,1477,6345,10490,15054,6345
8117,1467,1122,954,1487,6345,10490,15054,6345
7751,1476,1114,1006,1484,6345,10490,15054,6345
8117,1467,1104,963,1476,6345,10490,15054,6345
8117,1462,1135,1009,1488,6345,10490,15054,6345
7751,1466,1108,1013,1483,6345,10490,15054,6345
8117,1465,1146,986,1477,6345,10490,15054,6345
8117,1464,1104,997,1492,6345,10490,15054,6345
7751,1462,1144,993,1483,6345,10490,15054,6345
8148,1463,1092,936,1478,6345,10490,15054,6345
8148,1471,1111,979,1485,6345,10490,15054,6345
7751,1466,1088,960,1479,6345,10490,15054,6345
8117,1465,1112,969,1471,6345,10490,15054,6345
8117,1469,1093,982,1486,6345,10490,15054,6345
7751,1466,1135,966,1479,6345,10490,15054,6345
8148,1459,1113,954,1473,6345,10490,15054,6345
8117,1459,1109,990,1484,6345,10490,15054,6345
7751,1466,1096,974,1478,6345,10490,15054,6345
8148,1460,1121,1002,1471,6345,10490,15054,6345
8117,1466,1098,996,1483,6345,10490,15054,6345
7751,1460,1140,972,1473,6345,10490,15054,6345
8117,1465,1098,993,1475,6345,10490,15054,6345
8117,1464,1109,979,1480,6345,10490,15054,6345
7751,1460,1092,954,1477,6345,10490,15054,6345
8117,1462,1094,967,1472,6345,10490,15054,6345
8117,1464,1096,958,1491,6345,10490,15054,6345
7751,1464,1115,935,1488,6345,10490,15054,6345
8117,1465,1095,940,1476,6345,10490,15054,6345
8117,1469,1090,892,1488,6345,10490,15054,6345
7751,1469,1072,939,1485,6345,10490,15054,6345
8148,1462,1085,934,1475,6345,10490,15054,6345
8148,1459,1087,947,1484,6345,10490,15054,6345
7781,1467,1107,935,1478,6345,10490,15054,6345
8117,1464,1093,949,1477,6345,10490,15054,6345
7751,1466,1093,909,1492,6345,10490,15054,6345
8087,1467,1076,963,1484,6345,10490,15054,6345
8117,1461,1081,918,1474,6345,10490,15054,6345
8117,1466,1103,975,1483,6345,10490,15054,6345
7751,1461,1087,977,1486,6345,10490,15054,6345
8117,1465,1132,966,1480,6345,10490,15054,6345
8117,1466,1094,998,1490,6345,10490,15054,6345
7751,1464,1141,1002,1484,6345,10490,15054,6345
8117,1469,1103,986,1479,6345,10490,15054,6345
8117,1460,1116,1010,1473,6345,10490,15054,6345
7751,1461,1115,996,1484,6345,10490,15054,6345
8117,1466,1163,1017,1478,6345,10490,15054,6345
8117,1460,1140,1038,1471,6345,10490,15054,6345
7751,1465,1147,1017,1493,6345,10490,15054,6345
8117,1464,1127,1041,1476,6345,10490,15054,6345
8117,1458,1148,1015,1473,6345,10490,15054,6345
7751,1465,1146,1041,1490,6345,10490,15054,6345
8117,1464,1120,1032,1479,6345,10490,15054,6345
8117,1466,1147,1035,1476,6345,10490,15054,6345
8117,1466,1126,1030,1482,6345,10490,15054,6345
7751,1464,1167,1021,1479,6345,10490,15054,6345
8117,1468,1141,979,1475,6345,10490,15054,6345
8117,1471,1113,1019,1480,6345,10490,15054,6345
7751,1465,1112,994,1486,6345,10490,15054,6345
8117,1463,1154,1016,1475,6345,10490,15054,6345
8117,1464,1110,1021,1490,6345,10490,15054,6345
7751,1461,1154,1002,1482,6345,10490,15054,6345
8117,1468,1117,1032,1479,6345,10490,15054,6345
8117,1466,1135,1026,1488,6345,10490,15054,6345
7751,1466,1119,1000,1485,6345,10490,15054,6345
8117,1465,1119,1035,1476,6345,10490,15054,6345
8117,1466,1141,1040,1476,6345,10490,15054,6345
7751,1461,1162,1016,1487,6345,10490,15054,6345
8117,1466,1146,1041,1476,6345,10490,15054,6345
8117,1464,1151,994,1473,6345,10490,15054,6345
7751,1466,1145,1048,1487,6345,10490,15054,6345
8117,1467,1126,1040,1482,6345,10490,15054,6345
8117,1457,1151,1055,1476,6345,10490,15054,6345
7751,1466,1139,1059,1495,6345,10490,15054,6345
8117,1465,1179,1045,1480,6345,10490,15054,6345
8117,1466,1151,1067,1474,6345,10490,15054,6345
8117,1461,1169,1070,1483,6345,10490,15054,6345
7751,1467,1144,1050,1480,6345,10490,15054,6345
8117,1466,1153,1074,1475,6345,10490,15054,6345
8117,1462,1170,1074,1486,6345,10490,15054,6345
7751,1469,1188,1052,1481,6345,10490,15054,6345
8117,1468,1156,1081,1474,6345,10490,15054,6345
8117,1464,1175,1038,1483,6345,10490,15054,6345
7751,1462,1160,1089,1484,6345,10490,15054,6345
8117,1465,1153,1090,1475,6345,10490,15054,6345
8117,1466,1179,1095,1488,6345,10490,15054,6345
7751,1466,1168,1099,1482,6345,10490,15054,6345
8117,1461,1203,1103,1478,6345,10490,15054,6345
7843,1466,1186,1080,1483,6345,10532,15171,6345
8117,1467,1216,1248,1479,6345,10532,15171,6345
8117,1461,1232,1248,1476,6345,10532,15171,6345
8117,1469,1233,1244,1487,6345,10532,15171,6345
7751,1465,1207,1246,1479,6345,10532,15171,6345
8117,1458,1228,1241,1474,6345,10532,15171,6345
8117,1463,1226,1199,1488,6345,10532,15171,6345
7751,1461,1222,1239,1481,6345,10532,15171,6345
8117,1460,1226,1190,1472,6345,10532,15171,6345
8117,1464,1224,1246,1488,6345,10532,15171,6345
7751,1466,1206,1249,1484,6345,10532,15171,6345
8117,1466,1253,1252,1475,6345,10532,15171,6345
8117,1467,1215,1258,1490,6345,10532,15171,6345
7751,1468,1253,1244,1485,6345,10532,15171,6345
8117,1466,1215,1256,1475,6345,10532,15171,6345
8117,1458,1238,1260,1473,6345,10532,15171,6345
7751,1469,1223,1233,1482,6345,10532,15171,6345
8117,1466,1238,1252,1483,6345,10532,15171,6345
8117,1462,1239,1262,1472,6345,10532,15171,6345
7751,1466,1259,1234,1488,6345,10532,15171,6345
8117,1468,1225,1257,1480,6345,10532,15171,6345
8117,1469,1240,1208,1476,6345,10532,15171,6345
7751,1458,1239,1256,1487,6345,10532,15171,6345
8117,1462,1212,1259,1479,6345,10532,15171,6345
8117,1467,1240,1262,1474,6345,10532,15171,6345
8117,1467,1220,1261,1483,6345,10532,15171,6345
7751,1465,1272,1268,1479,6345,10532,15171,6345
8117,1464,1245,1225,1469,6345,10532,15171,6345
8117,1468,1229,1281,1482,6345,10532,15171,6345
7751,1458,1225,1251,1475,6345,10532,15171,6345
8117,1466,1251,1284,1477,6345,10532,15171,6345
8117,1464,1243,1277,1483,6345,10532,15171,6345
7751,1466,1272,1254,1481,6345,10532,15171,6345
8117,1467,1237,1284,1474,6345,10532,15171,6345
8117,1461,1252,1276,1493,6345,10532,15171,6345
7751,1461,1229,1271,1486,6345,10532,15171,6345
8117,1464,1228,1279,1479,6345,10532,15171,6345
8117,1466,1250,1282,1472,6345,10532,15171,6345
7751,1466,1256,1280,1488,6345,10532,15171,6345
8117,1463,1277,1287,1484,6345,10532,15171,6345
8117,1460,1259,1245,1470,6345,10532,15171,6345
7751,1461,1243,1300,1487,6345,10532,15171,6345
8117,1467,1241,1280,1479,6345,10532,15171,6345
8117,1461,1265,1301,1473,6345,10532,15171,6345
7751,1466,1248,1302,1492,6345,10532,15171,6345
8117,1463,1281,1272,1480,6345,10532,15171,6345
8117,1469,1247,1296,1476,6345,10532,15171,6345
8117,1465,1264,1293,1484,6345,10532,15171,6345
7751,1461,1241,1272,1482,6345,10532,15171,6345
8117,1469,1240,1290,1475,6345,10532,15171,6345
8117,1464,1266,1304,1489,6345,10532,15171,6345
7751,1466,1284,1278,1481,6345,10532,15171,6345
8117,1465,1257,1303,1473,6345,10532,15171,6345
8117,1466,1274,1257,1488,6345,10532,15171,6345
7751,1469,1255,1312,1489,6345,10532,15171,6345
8117,1467,1247,1311,1475,6345,10532,15171,6345
8117,1470,1279,1310,1489,6345,10532,15171,6345
7751,1466,1248,1311,1481,6345,10532,15171,6345
8117,1467,1295,1300,1474,6345,10532,15171,6345
8117,1469,1270,1299,1473,6345,10532,15171,6345
7751,1469,1300,1305,1487,6345,10532,15171,6345
8117,1468,1255,1285,1476,6345,10532,15171,6345
8117,1460,1260,1313,1471,6345,10532,15171,6345
7751,1463,1254,1292,1487,6345,10532,15171,6345
8117,1465,1302,1291,1477,6345,10532,15171,6345
8117,1467,1256,1318,1473,6345,10532,15171,6345
7751,1467,1276,1270,1493,6345,10532,15171,6345
8117,1463,1257,1311,1477,6345,10532,15171,6345
8117,1467,1276,1306,1476,6345,10532,15171,6345
8117,1466,1272,1307,1482,6345,10532,15171,6345
7751,1469,1249,1304,1486,6345,10532,15171,6345
8117,1469,1270,1311,1479,6345,10532,15171,6345
8117,1464,1273,1262,1486,6345,10532,15171,6345
7751,1466,1248,1311,1484,6345,10532,15171,6345
8117,1470,1272,1262,1476,6345,10532,15171,6345
8117,1467,1273,1306,1488,6345,10532,15171,6345
7751,1462,1256,1316,1486,6345,10532,15171,6345
8117,1463,1303,1298,1479,6345,10532,15171,6345
8117,1466,1265,1323,1490,6345,10532,15171,6345
7751,1467,1307,1324,1485,6345,10532,15171,6345
8117,1470,1274,1319,1471,6345,10532,15171,6345
8117,1469,1284,1325,1472,6345,10532,15171,6345
7751,1458,1264,1305,1484,6345,10532,15171,6345
8117,1466,1307,1325,1477,6345,10532,15171,6345
8117,1467,1289,1320,1467,6345,10532,15171,6345
7751,1466,1307,1307,1487,6345,10532,15171,6345
8117,1467,1268,1329,1479,6345,10532,15171,6345
8117,1466,1286,1288,1473,6345,10532,15171,6345
7751,1464,1287,1328,1488,6345,10532,15171,6345
8117,1461,1263,1325,1482,6345,10532,15171,6345
8117,1460,1288,1330,1469,6345,10532,15171,6345
8117,1458,1271,1330,1484,6345,10532,15171,6345
7751,1464,1308,1325,1478,6345,10532,15171,6345
8117,1459,1284,1281,1471,6345,10532,15171,6345
8117,1466,1264,1325,1483,6345,10532,15171,6345
7751,1466,1263,1306,1479,6345,10532,15171,6345
8117,1469,1286,1320,1473,6345,10532,15171,6345
8117,1466,1274,1320,1482,6345,10532,15171,6345
7751,1466,1304,1303,1492,6345,10532,15171,6345
8117,1464,1265,1321,1472,6345,10532,15171,6345
8117,1466,1282,1318,1494,6345,10532,15171,6345
7751,1463,1263,1309,1486,6345,10532,15171,6345
8117,1465,1262,1312,1475,6345,10532,15171,6345
8117,1468,1279,1305,1469,6345,10532,15171,6345
7751,1464,1295,1304,1488,6345,10532,15171,6345
8117,1465,1291,1309,1478,6345,10532,15171,6345
8117,1463,1277,1265,1471,6345,10532,15171,6345
7751,1460,1265,1309,1485,6345,10532,15171,6345
8117,1463,1258,1292,1480,6345,10532,15171,6345
8117,1463,1279,1307,1473,6345,10532,15171,6345
7751,1466,1253,1306,1489,6345,10532,15171,6345
8117,1467,1300,1285,1479,6345,10532,15171,6345
8117,1468,1255,1304,1479,6345,10532,15171,6345
8117,1469,1271,1303,1485,6345,10532,15171,6345
7751,1466,1251,1276,1483,6345,10532,15171,6345
8117,1472,1250,1293,1468,6345,10532,15171,6345
8117,1467,1267,1295,1486,6345,10532,15171,6345
7751,1466,1286,1269,1481,6345,10532,15171,6345
8117,1464,1241,1288,1472,6345,10532,15171,6345
8117,1466,1260,1239,1484,6345,10532,15171,6345
7751,1464,1241,1279,1479,6345,10532,15171,6345
8117,1468,1239,1289,1471,6345,10532,15171,6345
8117,1467,1263,1284,1484,6345,10532,15171,6345
7751,1467,1239,1287,1482,6345,10532,15171,6345
8117,1462,1278,1280,1476,6345,10532,15171,6345
8117,1466,1259,1276,1465,6345,10532,15171,6345
7751,1466,1284,1286,1481,6345,10532,15171,6345
8117,1470,1248,1269,1475,6345,10532,15171,6345
8117,1461,1264,1290,1470,6345,10532,15171,6345
7751,1466,1269,1273,1484,6345,10532,15171,6345
8117,1465,1284,1269,1481,6345,10532,15171,6345
8117,1467,1250,1296,1479,6345,10532,15171,6345
7751,1466,1263,1253,1493,6345,10532,15171,6345
8117,1464,1248,1288,1484,6345,10532,15171,6345
8117,1466,1266,1290,1472,6345,10532,15171,6345
8117,1466,1263,1291,1485,6345,10532,15171,6345
7751,1463,1251,1287,1484,6345,10532,15171,6345
8117,1463,1268,1291,1477,6345,10532,15171,6345
8117,1462,1266,1254,1485,6345,10532,15171,6345
7751,1466,1255,1291,1482,6345,10532,15171,6345
8117,1465,1244,1245,1477,6345,10532,15171,6345
8117,1463,1273,1293,1488,6345,10532,15171,6345
7751,1464,1251,1287,1481,6345,10532,15171,6345
8117,1460,1292,1267,1478,6345,10532,15171,6345
8117,1461,1250,1293,1486,6345,10532,15171,6345
7751,1478,1293,1297,1486,6345,10532,15171,6345
8117,1465,1250,1288,1473,6345,10532,15171,6345
8117,1459,1267,1293,1473,6345,10532,15171,6345
7751,1469,1256,1278,1485,6345,10532,15171,6345
8117,1463,1293,1295,1475,6345,10532,15171,6345
8117,1467,1277,1305,1470,6345,10532,15171,6345
7751,1469,1275,1288,1486,6345,10532,15171,6345
8117,1467,1266,1318,1477,6345,10532,15171,6345
8117,1464,1289,1288,1470,6345,10532,15171,6345
7751,1467,1286,1326,1486,6345,10532,15171,6345
8117,1467,1263,1325,1476,6345,10532,15171,6345
8117,1462,1290,1332,1470,6345,10532,15171,6345
8117,1469,1270,1327,1483,6345,10532,15171,6345
7751,1466,1316,1328,1479,6345,10532,15171,6345
8117,1464,1287,1278,1472,6345,10532,15171,6345
8117,1466,1274,1327,1482,6345,10532,15171,6345
7751,1466,1274,1304,1481,6345,10532,15171,6345
8117,1466,1312,1334,1477,6345,10532,15171,6345
8117,1469,1271,1325,1489,6345,10532,15171,6345
7751,1464,1312,1303,1485,6345,10532,15171,6345
8117,1468,1272,1330,1474,6345,10532,15171,6345
8117,1462,1291,1334,1487,6345,10532,15171,6345
7751,1463,1276,1313,1488,6345,10532,15171,6345
8117,1463,1272,1325,1479,6345,10532,15171,6345
8117,1463,1294,1323,1474,6345,10532,15171,6345
7751,1469,1312,1317,1490,6345,10532,15171,6345
8117,1468,1306,1325,1480,6345,10532,15171,6345
8117,1466,1286,1275,1477,6345,10532,15171,6345
7751,1466,1291,1320,1492,6345,10532,15171,6345
8117,1465,1267,1307,1480,6345,10532,15171,6345
8117,1468,1291,1320,1468,6345,10532,15171,6345
7751,1457,1267,1320,1485,6345,10532,15171,6345
8117,1465,1306,1299,1480,6345,10532,15171,6345
8117,1460,1271,1318,1473,6345,10532,15171,6345
8117,1464,1288,1317,1484,6345,10532,15171,6345
7751,1466,1271,1291,1480,6345,10532,15171,6345
8117,1466,1274,1318,1473,6345,10532,15171,6345
8117,1465,1278,1309,1482,6345,10532,15171,6345
7751,1467,1300,1286,1481,6345,10532,15171,6345
8117,1465,1262,1304,1476,6345,10532,15171,6345
8117,1464,1278,1251,1485,6345,10532,15171,6345
7751,1469,1261,1300,1476,6345,10532,15171,6345
8117,1464,1255,1301,1475,6345,10532,15171,6345
8117,1460,1279,1307,1484,6345,10532,15171,6345
7751,1459,1255,1307,1479,6345,10532,15171,6345
8117,1463,1299,1313,1474,6345,10532,15171,6345
8117,1464,1285,1293,1471,6345,10532,15171,6345
7751,1460,1307,1317,1484,6345,10532,15171,6345
8117,1466,1270,1296,1478,6345,10532,15171,6345
8117,1466,1287,1323,1474,6345,10532,15171,6345
7751,1461,1289,1310,1493,6345,10532,15171,6345
8117,1465,1314,1293,1477,6345,10532,15171,6345
8117,1461,1262,1314,1473,6345,10532,15171,6345
7751,1467,1286,1286,1491,6345,10532,15171,6345
8117,1467,1265,1313,1479,6345,10532,15171,6345
8117,1468,1285,1313,1472,6345,10532,15171,6345
8117,1466,1283,1316,1485,6345,10532,15171,6345
7751,1471,1272,1317,1484,6345,10532,15171,6345
8117,1465,1290,1308,1472,6345,10532,15171,6345
8117,1473,1286,1279,1485,6345,10532,15171,6345
7751,1466,1269,1319,1482,6345,10532,15171,6345
8117,1462,1264,1280,1479,6345,10532,15171,6345
8117,1467,1293,1320,1487,6345,10532,15171,6345
7751,1466,1274,1323,1484,6345,10532,15171,6345
8117,1459,1308,1295,1475,6345,10532,15171,6345
8117,1466,1270,1328,1489,6345,10532,15171,6345
7751,1467,1318,1319,1485,6345,10532,15171,6345
8117,1466,1277,1305,1478,6345,10532,15171,6345
8117,1469,1287,1320,1477,6345,10532,15171,6345
7751,1462,1274,1299,1487,6345,10532,15171,6345
8117,1466,1312,1316,1480,6345,10532,15171,6345
8117,1466,1293,1320,1475,6345,10532,15171,6345
7751,1461,1291,1296,1487,6345,10532,15171,6345
8117,1462,1276,1320,1478,6345,10532,15171,6345
8117,1466,1295,1299,1467,6345,10532,15171,6345
7751,1462,1295,1320,1486,6345,10532,15171,6345
8117,1464,1279,1323,1477,6345,10532,15171,6345
8117,1461,1295,1320,1471,6345,10532,15171,6345
8117,1469,1279,1328,1484,6345,10532,15171,6345
7751,1461,1316,1325,1480,6345,10532,15171,6345
8117,1466,1300,1281,1476,6345,10532,15171,6345
8117,1461,1279,1332,1489,6345,10532,15171,6345
7751,1466,1276,1306,1487,6345,10532,15171,6345
8117,1466,1313,1340,1478,6345,10532,15171,6345
8117,1459,1273,1328,1492,6345,10532,15171,6345
7751,1470,1316,1300,1485,6345,10532,15171,6345
8117,1465,1284,1326,1478,6345,10532,15171,6345
8117,1460,1293,1320,1492,6345,10532,15171,6345
7751,1465,1276,1309,1488,6345,10532,15171,6345
8117,1466,1275,1323,1478,6345,10532,15171,6345
8117,1466,1293,1320,1474,6345,10532,15171,6345
7751,1467,1306,1309,1490,6345,10532,15171,6345
8117,1467,1313,1323,1476,6345,10532,15171,6345
8117,1466,1294,1278,1476,6345,10532,15171,6345
7751,1465,1292,1328,1490,6345,10532,15171,6345
8117,1467,1277,1324,1479,6345,10532,15171,6345
8117,1465,1303,1328,1474,6345,10532,15171,6345
7751,1464,1278,1332,1492,6345,10532,15171,6345
8117,1469,1320,1314,1478,6345,10532,15171,6345
8117,1463,1289,1328,1473,6345,10532,15171,6345
8117,1466,1301,1334,1481,6345,10532,15171,6345
7751,1459,1278,1313,1480,6345,10532,15171,6345
8117,1462,1288,1336,1474,6345,10532,15171,6345
8117,1467,1305,1335,1483,6345,10532,15171,6345
7751,1459,1317,1309,1484,6345,10532,15171,6345
8117,1463,1284,1328,1475,6345,10532,15171,6345
8117,1466,1303,1283,1487,6345,10532,15171,6345
7751,1465,1285,1330,1482,6345,10532,15171,6345
8117,1465,1272,1332,1475,6345,10532,15171,6345
8117,1468,1301,1327,1489,6345,10532,15171,6345
7751,1466,1273,1329,1484,6345,10532,15171,6345
8117,1466,1318,1323,1475,6345,10532,15171,6345
8117,1469,1297,1293,1467,6345,10532,15171,6345
7751,1464,1308,1326,1489,6345,10532,15171,6345
8117,1470,1277,1299,1483,6345,10532,15171,6345
8117,1464,1293,1324,1477,6345,10532,15171,6345
7751,1466,1292,1313,1488,6345,10532,15171,6345
8117,1467,1310,1298,1481,6345,10532,15171,6345
8117,1463,1276,1326,1474,6345,10532,15171,6345
7751,1461,1297,1305,1499,6345,10532,15171,6345
8117,1462,1275,1321,1479,6345,10532,15171,6345
8117,1470,1296,1320,1477,6345,10532,15171,6345
8117,1469,1301,1320,1483,6345,10532,15171,6345
7751,1463,1291,1325,1484,6345,10532,15171,6345
8117,1463,1299,1327,1478,6345,10532,15171,6345
8117,1466,1296,1283,1487,6345,10532,15171,6345
7751,1464,1285,1332,1483,6345,10532,15171,6345
8117,1464,1276,1291,1472,6345,10532,15171,6345
8117,1471,1311,1341,1487,6345,10532,15171,6345
7751,1469,1287,1343,1483,6345,10532,15171,6345
8117,1470,1331,1319,1477,6345,10532,15171,6345
8117,1469,1290,1346,1485,6345,10532,15171,6345
7751,1466,1336,1343,1485,6345,10532,15171,6345
8117,1465,1288,1323,1476,6345,10532,15171,6345
8117,1464,1300,1344,1469,6345,10532,15171,6345
7751,1466,1287,1323,1488,6345,10532,15171,6345
8117,1468,1328,1331,1479,6345,10532,15171,6345
8117,1471,1306,1357,1474,6345,10532,15171,6345
7751,1468,1312,1320,1484,6345,10532,15171,6345
8117,1468,1295,1347,1474,6345,10532,15171,6345
8117,1466,1312,1332,1471,6345,10532,15171,6345
7751,1466,1313,1350,1487,6345,10532,15171,6345
8117,1463,1291,1357,1480,6345,10532,15171,6345
8117,1465,1315,1354,1472,6345,10532,15171,6345
8117,1461,1303,1352,1482,6345,10532,15171,6345
7751,1476,1339,1363,1485,6345,10532,15171,6345
8117,1467,1320,1315,1473,6345,10532,15171,6345
8117,1466,1305,1358,1489,6345,10532,15171,6345
7751,1462,1298,1335,1487,6345,10532,15171,6345
8117,1466,1340,1358,1479,6345,10532,15171,6345
8117,1466,1299,1360,1489,6345,10532,15171,6345
7751,1465,1339,1330,1487,6345,10532,15171,6345
8117,1468,1297,1358,1475,6345,10532,15171,6345
8117,1469,1316,1357,1494,6345,10532,15171,6345
7751,1466,1299,1329,1486,6345,10532,15171,6345
8117,1469,1291,1353,1476,6345,10532,15171,6345
8117,1469,1315,1349,1472,6345,10532,15171,6345
7751,1469,1332,1334,1488,6345,10532,15171,6345
8117,1464,1317,1347,1476,6345,10532,15171,6345
8117,1469,1318,1312,1475,6345,10532,15171,6345
7751,1468,1311,1349,1487,6345,10532,15171,6345
8117,1469,1287,1338,1478,6345,10532,15171,6345
8117,1462,1310,1344,1473,6345,10532,15171,6345
7751,1466,1291,1345,1494,6345,10532,15171,6345
8117,1462,1330,1330,1477,6345,10532,15171,6345
8117,1464,1300,1342,1475,6345,10532,15171,6345
8117,1467,1312,1335,1481,6345,10532,15171,6345
7751,1470,1286,1319,1480,6345,10532,15171,6345
8117,1464,1299,1343,1476,6345,10532,15171,6345
8117,1465,1307,1350,1486,6345,10532,15171,6345
7751,1465,1327,1328,1479,6345,10532,15171,6345
8117,1466,1294,1352,1476,6345,10532,15171,6345
8117,1470,1315,1309,1486,6345,10532,15171,6345
7751,1466,1297,1360,1486,6345,10532,15171,6345
8117,1470,1297,1359,1474,6345,10532,15171,6345
8117,1466,1319,1359,1486,6345,10532,15171,6345
7751,1470,1304,1364,1483,6345,10532,15171,6345
8117,1465,1339,1361,1482,6345,10532,15171,6345
8117,1465,1319,1317,1474,6345,10532,15171,6345
7751,1466,1319,1358,1489,6345,10532,15171,6345
8117,1469,1298,1334,1482,6345,10532,15171,6345
8117,1462,1318,1356,1475,6345,10532,15171,6345
7751,1473,1308,1352,1492,6345,10532,15171,6345
8117,1469,1337,1330,1480,6345,10532,15171,6345
8117,1469,1299,1356,1471,6345,10532,15171,6345
7751,1466,1324,1339,1494,6345,10532,15171,6345
8117,1468,1293,1352,1477,6345,10532,15171,6345
8117,1461,1316,1356,1472,6345,10532,15171,6345
8117,1461,1321,1367,1482,6345,10532,15171,6345
7751,1466,1320,1359,1481,6345,10532,15171,6345
8117,1462,1323,1359,1475,6345,10532,15171,6345
8117,1469,1331,1313,1489,6345,10532,15171,6345
7751,1462,1314,1365,1483,6345,10532,15171,6345
8117,1467,1309,1316,1475,6345,10532,15171,6345
8117,1463,1328,1365,1487,6345,10532,15171,6345
7751,1466,1306,1366,1483,6345,10532,15171,6345
8117,1467,1351,1339,1474,6345,10532,15171,6345
8117,1464,1313,1365,1489,6345,10532,15171,6345
7751,1466,1351,1359,1482,6345,10532,15171,6345
8117,1467,1311,1343,1478,6345,10532,15171,6345
8117,1470,1309,1364,1475,6345,10532,15171,6345
7751,1466,1315,1341,1485,6345,10532,15171,6345
8117,1467,1347,1346,1477,6345,10532,15171,6345
8117,1470,1319,1362,1475,6345,10532,15171,6345
7751,1466,1321,1337,1487,6345,10532,15171,6345
8117,1463,1307,1360,1474,6345,10532,15171,6345
8117,1462,1325,1338,1475,6345,10532,15171,6345
7751,1466,1324,1357,1487,6345,10532,15171,6345
8117,1463,1299,1353,1477,6345,10532,15171,6345
8117,1461,1322,1357,1474,6345,10532,15171,6345
8117,1460,1316,1345,1487,6345,10532,15171,6345
7751,1469,1342,1350,1483,6345,10532,15171,6345
8117,1465,1316,1300,1477,6345,10532,15171,6345
8117,1466,1297,1346,1492,6345,10532,15171,6345
7751,1461,1291,1319,1486,6345,10532,15171,6345
8117,1461,1330,1341,1476,6345,10532,15171,6345
8117,1470,1289,1338,1492,6345,10532,15171,6345
7751,1459,1341,1321,1482,6345,10532,15171,6345
8117,1467,1295,1341,1477,6345,10532,15171,6345
8117,1466,1312,1344,1491,6345,10532,15171,6345
7751,1468,1291,1317,1487,6345,10532,15171,6345
8117,1464,1295,1345,1481,6345,10532,15171,6345
8117,1469,1311,1344,1469,6345,10532,15171,6345
7751,1467,1333,1320,1489,6345,10532,15171,6345
8117,1464,1306,1337,1478,6345,10532,15171,6345
8117,1469,1305,1291,1469,6345,10532,15171,6345
7751,1466,1303,1335,1491,6345,10532,15171,6345
8117,1463,1283,1334,1480,6345,10532,15171,6345
8117,1471,1306,1337,1474,6345,10532,15171,6345
7751,1466,1284,1331,1488,6345,10532,15171,6345
8209,1468,1283,1333,1475,6345,10481,15087,6345
8117,1466,1255,1191,1488,6345,10481,15087,6345
7751,1460,1236,1237,1478,6345,10481,15087,6345
8117,1464,1231,1225,1473,6345,10481,15087,6345
8117,1467,1254,1229,1486,6345,10481,15087,6345
7751,1469,1228,1232,1482,6345,10481,15087,6345
8117,1464,1277,1217,1476,6345,10481,15087,6345
8117,1465,1253,1225,1474,6345,10481,15087,6345
7751,1459,1281,1235,1485,6345,10481,15087,6345
8117,1461,1235,1212,1475,6345,10481,15087,6345
8117,1469,1242,1240,1473,6345,10481,15087,6345
7751,1469,1254,1217,1490,6345,10481,15087,6345
8117,1466,1277,1218,1477,6345,10481,15087,6345
8117,1467,1241,1239,1471,6345,10481,15087,6345
7751,1464,1261,1193,1495,6345,10481,15087,6345
8117,1465,1244,1242,1479,6345,10481,15087,6345
8117,1463,1262,1241,1467,6345,10481,15087,6345
8117,1460,1263,1248,1484,6345,10481,15087,6345
7751,1465,1236,1254,1483,6345,10481,15087,6345
8117,1467,1272,1261,1474,6345,10481,15087,6345
8117,1461,1274,1219,1486,6345,10481,15087,6345
7751,1469,1258,1268,1483,6345,10481,15087,6345
8117,1464,1249,1222,1476,6345,10481,15087,6345
8117,1463,1272,1272,1489,6345,10481,15087,6345
7751,1458,1253,1265,1482,6345,10481,15087,6345
8117,1463,1289,1241,1474,6345,10481,15087,6345
8117,1467,1250,1267,1490,6345,10481,15087,6345
7751,1466,1291,1252,1485,6345,10481,15087,6345
8117,1463,1247,1261,1471,6345,10481,15087,6345
8117,1468,1272,1265,1469,6345,10481,15087,6345
7751,1467,1258,1246,1483,6345,10481,15087,6345
8117,1462,1271,1260,1476,6345,10481,15087,6345
8117,1458,1271,1262,1472,6345,10481,15087,6345
7751,1462,1271,1244,1486,6345,10481,15087,6345
8117,1465,1253,1263,1478,6345,10481,15087,6345
8117,1462,1274,1230,1474,6345,10481,15087,6345
7751,1467,1274,1272,1488,6345,10481,15087,6345
8117,1464,1255,1272,1479,6345,10481,15087,6345
8117,1466,1284,1274,1476,6345,10481,15087,6345
8117,1469,1263,1272,1484,6345,10481,15087,6345
7751,1468,1307,1269,1482,6345,10481,15087,6345
8117,1469,1278,1232,1475,6345,10481,15087,6345
8117,1461,1262,1276,1480,6345,10481,15087,6345
7751,1466,1257,1247,1485,6345,10481,15087,6345
8117,1467,1296,1268,1479,6345,10481,15087,6345
8117,1465,1272,1270,1486,6345,10481,15087,6345
7751,1461,1305,1250,1486,6345,10481,15087,6345
8117,1465,1262,1279,1475,6345,10481,15087,6345
8117,1464,1278,1259,1489,6345,10481,15087,6345
7751,1459,1261,1266,1487,6345,10481,15087,6345
8117,1464,1256,1277,1478,6345,10481,15087,6345
8117,1469,1282,1277,1469,6345,10481,15087,6345
7751,1471,1297,1278,1485,6345,10481,15087,6345
8117,1463,1304,1278,1483,6345,10481,15087,6345
8117,1465,1283,1231,1471,6345,10481,15087,6345
7751,1458,1267,1276,1487,6345,10481,15087,6345
8117,1463,1260,1251,1481,6345,10481,15087,6345
8117,1464,1280,1277,1470,6345,10481,15087,6345
7751,1466,1260,1270,1488,6345,10481,15087,6345
8117,1462,1298,1248,1476,6345,10481,15087,6345
8117,1467,1258,1266,1472,6345,10481,15087,6345
8117,1466,1272,1272,1482,6345,10481,15087,6345
7751,1468,1260,1249,1481,6345,10481,15087,6345
8117,1467,1264,1263,1473,6345,10481,15087,6345
8117,1466,1277,1276,1483,6345,10481,15087,6345
7751,1469,1300,1252,1480,6345,10481,15087,6345
8117,1464,1262,1277,1479,6345,10481,15087,6345
8117,1472,1286,1230,1486,6345,10481,15087,6345
7751,1469,1261,1281,1486,6345,10481,15087,6345
8117,1468,1273,1282,1473,6345,10481,15087,6345
8117,1461,1287,1284,1489,6345,10481,15087,6345
7751,1462,1265,1281,1481,6345,10481,15087,6345
8117,1464,1311,1280,1471,6345,10481,15087,6345
8117,1465,1287,1277,1470,6345,10481,15087,6345
7751,1465,1313,1288,1483,6345,10481,15087,6345
8117,1467,1272,1264,1476,6345,10481,15087,6345
8117,1469,1277,1293,1470,6345,10481,15087,6345
7751,1463,1290,1270,1491,6345,10481,15087,6345
8117,1465,1306,1261,1477,6345,10481,15087,6345
8117,1469,1265,1284,1471,6345,10481,15087,6345
7751,1463,1288,1241,1492,6345,10481,15087,6345
8117,1464,1263,1278,1481,6345,10481,15087,6345
8117,1469,1289,1283,1474,6345,10481,15087,6345
8117,1466,1288,1283,1484,6345,10481,15087,6345
7751,1469,1271,1281,1478,6345,10481,15087,6345
8117,1466,1285,1284,1473,6345,10481,15087,6345
8117,1462,1288,1233,1483,6345,10481,15087,6345
7751,1469,1274,1284,1485,6345,10481,15087,6345
8117,1462,1264,1236,1476,6345,10481,15087,6345
8117,1466,1287,1279,1484,6345,10481,15087,6345
7751,1473,1267,1283,1482,6345,10481,15087,6345
8117,1463,1306,1258,1473,6345,10481,15087,6345
8117,1465,1268,1281,1485,6345,10481,15087,6345
7751,1466,1314,1277,1485,6345,10481,15087,6345
8117,1469,1279,1276,1478,6345,10481,15087,6345
8117,1460,1290,1289,1469,6345,10481,15087,6345
7751,1467,1274,1270,1484,6345,10481,15087,6345
8117,1466,1315,1284,1480,6345,10481,15087,6345
8117,1466,1298,1290,1475,6345,10481,15087,6345
7751,1458,1293,1260,1490,6345,10481,15087,6345
8117,1464,1270,1287,1475,6345,10481,15087,6345
8117,1466,1295,1253,1473,6345,10481,15087,6345
7751,1464,1294,1284,1487,6345,10481,15087,6345
8117,1462,1267,1286,1480,6345,10481,15087,6345
8117,1469,1291,1279,1469,6345,10481,15087,6345
8117,1461,1272,1282,1483,6345,10481,15087,6345
7751,1466,1312,1284,1479,6345,10481,15087,6345
8117,1462,1293,1236,1475,6345,10481,15087,6345
8117,1467,1271,1277,1487,6345,10481,15087,6345
7751,1466,1272,1262,1487,6345,10481,15087,6345
8117,1463,1314,1281,1478,6345,10481,15087,6345
8117,1464,1274,1285,1488,6345,10481,15087,6345
7751,1466,1315,1255,1488,6345,10481,15087,6345
8117,1464,1276,1278,1472,6345,10481,15087,6345
8117,1458,1291,1276,1489,6345,10481,15087,6345
7751,1464,1271,1259,1490,6345,10481,15087,6345
8117,1468,1263,1274,1476,6345,10481,15087,6345
8117,1464,1284,1275,1474,6345,10481,15087,6345
7751,1462,1304,1259,1488,6345,10481,15087,6345
8117,1466,1300,1267,1475,6345,10481,15087,6345
8117,1464,1279,1224,1474,6345,10481,15087,6345
7751,1466,1270,1268,1489,6345,10481,15087,6345
8117,1465,1262,1257,1482,6345,10481,15087,6345
8117,1464,1289,1283,1475,6345,10481,15087,6345
7751,1470,1267,1280,1490,6345,10481,15087,6345
8117,1463,1305,1256,1479,6345,10481,15087,6345
8117,1468,1269,1279,1474,6345,10481,15087,6345
8117,1463,1288,1278,1479,6345,10481,15087,6345
7751,1466,1272,1256,1480,6345,10481,15087,6345
8117,1470,1277,1290,1473,6345,10481,15087,6345
8117,1461,1293,1285,1485,6345,10481,15087,6345
7751,1461,1316,1267,1481,6345,10481,15087,6345
8117,1468,1276,1284,1475,6345,10481,15087,6345
8117,1461,1300,1236,1485,6345,10481,15087,6345
7751,1458,1282,1289,1478,6345,10481,15087,6345
8117,1463,1277,1288,1473,6345,10481,15087,6345
8117,1466,1300,1290,1480,6345,10481,15087,6345
7751,1463,1276,1289,1483,6345,10481,15087,6345
8117,1470,1320,1287,1471,6345,10481,15087,6345
8117,1466,1293,1266,1477,6345,10481,15087,6345
7751,1469,1313,1285,1491,6345,10481,15087,6345
8117,1463,1281,1266,1480,6345,10481,15087,6345
8117,1468,1294,1284,1471,6345,10481,15087,6345
7751,1465,1293,1273,1494,6345,10481,15087,6345
8117,1464,1313,1263,1485,6345,10481,15087,6345
8117,1467,1271,1294,1471,6345,10481,15087,6345
7751,1466,1296,1254,1496,6345,10481,15087,6345
8117,1463,1280,1292,1481,6345,10481,15087,6345
8117,1468,1297,1292,1473,6345,10481,15087,6345
8117,1470,1298,1299,1486,6345,10481,15087,6345
7751,1465,1283,1298,1480,6345,10481,15087,6345
8117,1465,1301,1297,1473,6345,10481,15087,6345
8117,1462,1299,1248,1486,6345,10481,15087,6345
7751,1466,1282,1292,1480,6345,10481,15087,6345
8117,1467,1276,1251,1474,6345,10481,15087,6345
8117,1466,1298,1291,1488,6345,10481,15087,6345
7751,1466,1277,1296,1482,6345,10481,15087,6345
8117,1466,1318,1277,1479,6345,10481,15087,6345
8117,1464,1288,1306,1487,6345,10481,15087,6345
7751,1469,1330,1298,1480,6345,10481,15087,6345
8117,1467,1278,1285,1479,6345,10481,15087,6345
8117,1461,1299,1292,1474,6345,10481,15087,6345
7751,1458,1283,1275,1483,6345,10481,15087,6345
8117,1468,1318,1281,1476,6345,10481,15087,6345
8117,1469,1294,1292,1472,6345,10481,15087,6345
7751,1462,1292,1261,1483,6345,10481,15087,6345
8117,1465,1276,1281,1474,6345,10481,15087,6345
8117,1466,1291,1249,1473,6345,10481,15087,6345
7751,1467,1293,1284,1483,6345,10481,15087,6345
8117,1466,1274,1286,1477,6345,10481,15087,6345
8117,1458,1291,1285,1473,6345,10481,15087,6345
8117,1459,1280,1287,1486,6345,10481,15087,6345
7751,1469,1318,1288,1481,6345,10481,15087,6345
8117,1465,1297,1246,1478,6345,10481,15087,6345
8117,1469,1274,1293,1491,6345,10481,15087,6345
7751,1467,1272,1272,1482,6345,10481,15087,6345
8117,1465,1321,1291,1476,6345,10481,15087,6345
8117,1465,1275,1291,1489,6345,10481,15087,6345
7751,1462,1311,1262,1484,6345,10481,15087,6345
8117,1465,1270,1289,1476,6345,10481,15087,6345
8117,1469,1291,1283,1492,6345,10481,15087,6345
7751,1466,1273,1272,1489,6345,10481,15087,6345
8117,1467,1272,1286,1477,6345,10481,15087,6345
8117,1465,1295,1289,1472,6345,10481,15087,6345
7751,1463,1314,1278,1490,6345,10481,15087,6345
8117,1468,1307,1292,1478,6345,10481,15087,6345
8117,1458,1297,1245,1470,6345,10481,15087,6345
7751,1463,1296,1293,1490,6345,10481,15087,6345
8117,1467,1268,1278,1481,6345,10481,15087,6345
8117,1464,1298,1290,1474,6345,10481,15087,6345
7751,1461,1277,1300,1490,6345,10481,15087,6345
8117,1463,1320,1275,1479,6345,10481,15087,6345
8117,1466,1288,1292,1472,6345,10481,15087,6345
8117,1469,1297,1295,1483,6345,10481,15087,6345
7751,1462,1279,1275,1484,6345,10481,15087,6345
8117,1471,1285,1302,1476,6345,10481,15087,6345
8117,1466,1309,1307,1486,6345,10481,15087,6345
7751,1467,1327,1283,1483,6345,10481,15087,6345
8117,1465,1293,1303,1478,6345,10481,15087,6345
8117,1467,1314,1260,1486,6345,10481,15087,6345
7751,1460,1298,1305,1484,6345,10481,15087,6345
8117,1465,1286,1310,1477,6345,10481,15087,6345
8117,1466,1311,1301,1485,6345,10481,15087,6345
7751,1464,1293,1306,1486,6345,10481,15087,6345
8117,1468,1337,1307,1478,6345,10481,15087,6345
8117,1470,1310,1273,1475,6345,10481,15087,6345
7751,1473,1320,1305,1492,6345,10481,15087,6345
8117,1466,1288,1285,1477,6345,10481,15087,6345
8117,1466,1312,1303,1469,6345,10481,15087,6345
7751,1466,1313,1297,1490,6345,10481,15087,6345
8117,1462,1335,1286,1480,6345,10481,15087,6345
8117,1468,1296,1311,1475,6345,10481,15087,6345
7751,1465,1316,1279,1491,6345,10481,15087,6345
8117,1467,1298,1307,1481,6345,10481,15087,6345
8117,1466,1313,1307,1475,6345,10481,15087,6345
8117,1473,1317,1307,1488,6345,10481,15087,6345
7751,1466,1304,1301,1483,6345,10481,15087,6345
8117,1466,1317,1305,1472,6345,10481,15087,6345
8117,1469,1311,1258,1484,6345,10481,15087,6345
7751,1467,1301,1301,1485,6345,10481,15087,6345
8117,1466,1295,1257,1476,6345,10481,15087,6345
8117,1466,1317,1303,1487,6345,10481,15087,6345
7751,1469,1293,1305,1485,6345,10481,15087,6345
8117,1468,1332,1280,1479,6345,10481,15087,6345
8117,1461,1294,1298,1491,6345,10481,15087,6345
7751,1469,1332,1300,1485,6345,10481,15087,6345
8117,1460,1293,1282,1478,6345,10481,15087,6345
8117,1466,1303,1300,1471,6345,10481,15087,6345
7751,1466,1287,1276,1483,6345,10481,15087,6345
8117,1466,1329,1292,1481,6345,10481,15087,6345
8117,1461,1304,1292,1471,6345,10481,15087,6345
7751,1469,1305,1273,1488,6345,10481,15087,6345
8117,1466,1285,1292,1480,6345,10481,15087,6345
8117,1466,1304,1263,1473,6345,10481,15087,6345
7751,1466,1300,1292,1485,6345,10481,15087,6345
8117,1467,1279,1292,1487,6345,10481,15087,6345
8117,1466,1306,1287,1471,6345,10481,15087,6345
8117,1464,1290,1287,1485,6345,10481,15087,6345
7720,1465,1323,1289,1481,6345,10481,15087,6345
8117,1463,1286,1277,1474,6345,10481,15087,6345
8117,1466,1292,1293,1488,6345,10481,15087,6345
7751,1466,1279,1271,1484,6345,10481,15087,6345
8117,1465,1320,1282,1474,6345,10481,15087,6345
8117,1464,1303,1297,1474,6345,10481,15087,6345
7751,1469,1327,1277,1483,6345,10481,15087,6345
8117,1467,1285,1301,1475,6345,10481,15087,6345
8117,1463,1307,1276,1471,6345,10481,15087,6345
7751,1461,1309,1303,1486,6345,10481,15087,6345
8117,1466,1291,1306,1481,6345,10481,15087,6345
8117,1461,1314,1310,1475,6345,10481,15087,6345
7751,1467,1297,1306,1488,6345,10481,15087,6345
8117,1461,1330,1305,1478,6345,10481,15087,6345
8117,1468,1315,1262,1471,6345,10481,15087,6345
8117,1465,1297,1299,1482,6345,10481,15087,6345
7751,1459,1300,1284,1476,6345,10481,15087,6345
8117,1462,1315,1311,1478,6345,10481,15087,6345
8117,1467,1293,1311,1485,6345,10481,15087,6345
7720,1465,1333,1279,1486,6345,10481,15087,6345
8117,1463,1295,1308,1477,6345,10481,15087,6345
8117,1464,1321,1285,1472,6345,10481,15087,6345
7751,1464,1300,1306,1486,6345,10481,15087,6345
8117,1467,1293,1306,1476,6345,10481,15087,6345
8117,1466,1318,1304,1473,6345,10481,15087,6345
7751,1473,1302,1304,1486,6345,10481,15087,6345
8117,1464,1340,1308,1474,6345,10481,15087,6345
8117,1461,1311,1252,1474,6345,10481,15087,6345
7751,1466,1293,1303,1484,6345,10481,15087,6345
8117,1459,1285,1281,1481,6345,10481,15087,6345
8117,1462,1313,1307,1474,6345,10481,15087,6345
8117,1468,1293,1313,1485,6345,10481,15087,6345
7751,1464,1337,1291,1491,6345,10481,15087,6345
8117,1465,1299,1311,1474,6345,10481,15087,6345
8117,1466,1318,1307,1490,6345,10481,15087,6345
7751,1465,1297,1289,1478,6345,10481,15087,6345
8117,1465,1296,1308,1476,6345,10481,15087,6345
8117,1466,1317,1306,1486,6345,10481,15087,6345
7720,1456,1309,1298,1495,6345,10481,15087,6345
8117,1468,1331,1298,1476,6345,10481,15087,6345
8117,1471,1309,1249,1471,6345,10481,15087,6345
7751,1461,1300,1296,1489,6345,10481,15087,6345
8117,1464,1290,1279,1478,6345,10481,15087,6345
8117,1467,1314,1304,1474,6345,10481,15087,6345
7751,1466,1297,1310,1491,6345,10481,15087,6345
8117,1466,1335,1288,1479,6345,10481,15087,6345
8117,1470,1298,1313,1473,6345,10481,15087,6345
8117,1460,1324,1311,1484,6345,10481,15087,6345
7751,1461,1307,1291,1482,6345,10481,15087,6345
8117,1468,1302,1305,1472,6345,10481,15087,6345
8117,1466,1320,1310,1486,6345,10481,15087,6345
7751,1471,1333,1289,1481,6345,10481,15087,6345
8117,1469,1322,1302,1475,6345,10481,15087,6345
8117,1466,1309,1253,1486,6345,10481,15087,6345
7751,1459,1291,1295,1480,6345,10481,15087,6345
8117,1464,1287,1289,1478,6345,10481,15087,6345
8117,1466,1309,1291,1486,6345,10481,15087,6345
7720,1460,1292,1298,1487,6345,10481,15087,6345
8117,1465,1331,1278,1475,6345,10481,15087,6345
8117,1469,1290,1304,1471,6345,10481,15087,6345
7751,1459,1315,1305,1484,6345,10481,15087,6345
8117,1467,1294,1279,1479,6345,10481,15087,6345
8117,1467,1295,1299,1473,6345,10481,15087,6345
8117,1469,1313,1303,1486,6345,10481,15087,6345
7751,1469,1332,1288,1482,6345,10481,15087,6345
8117,1466,1305,1302,1476,6345,10481,15087,6345
8117,1467,1317,1262,1488,6345,10481,15087,6345
7751,1466,1303,1303,1486,6345,10481,15087,6345
8117,1464,1291,1290,1475,6345,10481,15087,6345
8117,1464,1316,1307,1490,6345,10481,15087,6345
7751,1467,1297,1303,1487,6345,10481,15087,6345
8117,1464,1339,1294,1480,6345,10481,15087,6345
8117,1467,1306,1309,1495,6345,10481,15087,6345
7751,1464,1344,1305,1483,6345,10481,15087,6345
8117,1466,1303,1289,1479,6345,10481,15087,6345
8117,1467,1311,1309,1475,6345,10481,15087,6345
7751,1474,1307,1283,1488,6345,10481,15087,6345
8117,1465,1344,1280,1476,6345,10481,15087,6345
8117,1460,1302,1307,1474,6345,10481,15087,6345
8087,1458,1324,1260,1482,6345,10481,15087,6345
7751,1469,1303,1303,1482,6345,10481,15087,6345
8117,1466,1324,1300,1477,6345,10481,15087,6345
8117,1466,1325,1305,1484,6345,10481,15087,6345
7751,1461,1305,1310,1478,6345,10481,15087,6345
8117,1463,1336,1305,1471,6345,10481,15087,6345
8117,1466,1322,1311,1483,6345,10481,15087,6345
7751,1459,1360,1307,1481,6345,10481,15087,6345
8117,1464,1315,1283,1474,6345,10481,15087,6345
8117,1466,1316,1307,1486,6345,10481,15087,6345
7751,1461,1309,1278,1482,6345,10481,15087,6345
8117,1466,1347,1278,1476,6345,10481,15087,6345
8117,1467,1306,1290,1468,6345,10481,15087,6345
7751,1465,1338,1268,1482,6345,10481,15087,6345
8117,1468,1302,1295,1482,6345,10481,15087,6345
8117,1465,1316,1289,1473,6345,10481,15087,6345
7751,1466,1305,1273,1490,6345,10481,15087,6345
8117,1467,1294,1300,1477,6345,10481,15087,6345
8117,1464,1326,1298,1470,6345,10481,15087,6345
8087,1463,1312,1296,1486,6345,10481,15087,6345
7751,1471,1350,1307,1483,6345,10481,15087,6345
8117,1463,1327,1250,1474,6345,10481,15087,6345
8117,1466,1310,1304,1487,6345,10481,15087,6345
7751,1469,1304,1273,1484,6345,10481,15087,6345
8117,1466,1350,1299,1474,6345,10481,15087,6345
8117,1461,1306,1297,1490,6345,10481,15087,6345
7751,1464,1346,1276,1484,6345,10481,15087,6345
8117,1463,1302,1300,1477,6345,10481,15087,6345
8117,1463,1314,1291,1473,6345,10481,15087,6345
7751,1464,1304,1267,1487,6345,10481,15087,6345
8117,1463,1297,1289,1479,6345,10481,15087,6345
8117,1460,1314,1284,1473,6345,10481,15087,6345
7751,1460,1330,1262,1487,6345,10481,15087,6345
8117,1468,1306,1290,1478,6345,10481,15087,6345
8117,1466,1314,1244,1477,6345,10481,15087,6345
7751,1467,1318,1298,1487,6345,10481,15087,6345
8117,1467,1297,1298,1480,6345,10481,15087,6345
8117,1462,1320,1295,1468,6345,10481,15087,6345
8087,1464,1292,1296,1484,6345,10481,15087,6345
7751,1466,1342,1277,1483,6345,10481,15087,6345
8117,1464,1293,1296,1475,6345,10481,15087,6345
8117,1461,1320,1297,1487,6345,10481,15087,6345
7751,1469,1302,1271,1483,6345,10481,15087,6345
8117,1466,1298,1299,1473,6345,10481,15087,6345
8117,1469,1320,1302,1487,6345,10481,15087,6345
7751,1468,1334,1278,1482,6345,10481,15087,6345
8117,1467,1313,1303,1479,6345,10481,15087,6345
8117,1467,1320,1253,1472,6345,10481,15087,6345
7751,1461,1311,1302,1491,6345,10481,15087,6345
8117,1462,1307,1302,1479,6345,10481,15087,6345
8117,1469,1327,1301,1475,6345,10481,15087,6345
7751,1466,1304,1308,1494,6345,10481,15087,6345
8117,1465,1349,1294,1479,6345,10481,15087,6345
8117,1466,1328,1296,1473,6345,10481,15087,6345
8117,1469,1325,1302,1483,6345,10481,15087,6345
7751,1462,1306,1280,1482,6345,10481,15087,6345
8117,1469,1316,1304,1473,6345,10481,15087,6345
8087,1467,1326,1299,1490,6345,10481,15087,6345
7843,1469,1348,1284,1477,6345,10415,15030,6345
8117,1471,1238,1235,1475,6345,10415,15030,6345
7751,1471,1255,1235,1485,6345,10415,15030,6345
8117,1468,1236,1214,1477,6345,10415,15030,6345
8117,1467,1240,1237,1472,6345,10415,15030,6345
7751,1467,1259,1234,1489,6345,10415,15030,6345
8117,1467,1279,1215,1475,6345,10415,15030,6345
8117,1463,1252,1237,1470,6345,10415,15030,6345
8117,1466,1264,1190,1482,6345,10415,15030,6345
7751,1466,1234,1236,1481,6345,10415,15030,6345
8117,1456,1262,1219,1472,6345,10415,15030,6345
8117,1469,1259,1232,1482,6345,10415,15030,6345
7751,1470,1241,1236,1482,6345,10415,15030,6345
8117,1467,1282,1237,1472,6345,10415,15030,6345
8087,1454,1237,1230,1473,6345,10415,15030,6345
7751,1468,1281,1229,1483,6345,10415,15030,6345
8117,1465,1240,1203,1480,6345,10415,15030,6345
8117,1467,1238,1228,1472,6345,10415,15030,6345
7751,1463,1239,1206,1489,6345,10415,15030,6345
8117,1467,1277,1207,1481,6345,10415,15030,6345
8117,1466,1242,1230,1472,6345,10415,15030,6345
7751,1465,1255,1175,1495,6345,10415,15030,6345
8117,1464,1237,1222,1484,6345,10415,15030,6345
8117,1468,1256,1208,1476,6345,10415,15030,6345
8117,1471,1255,1225,1484,6345,10415,15030,6345
7751,1466,1231,1225,1484,6345,10415,15030,6345
8117,1474,1251,1233,1480,6345,10415,15030,6345
8117,1458,1252,1219,1483,6345,10415,15030,6345
7751,1467,1277,1230,1483,6345,10415,15030,6345
8117,1465,1257,1179,1472,6345,10415,15030,6345
8117,1466,1246,1226,1486,6345,10415,15030,6345
7751,1466,1230,1208,1485,6345,10415,15030,6345
8117,1465,1269,1205,1475,6345,10415,15030,6345
8087,1467,1233,1228,1475,6345,10415,15030,6345
7751,1467,1267,1201,1490,6345,10415,15030,6345
8117,1464,1233,1225,1478,6345,10415,15030,6345
8117,1473,1253,1200,1474,6345,10415,15030,6345
7751,1467,1249,1213,1487,6345,10415,15030,6345
8117,1470,1231,1228,1482,6345,10415,15030,6345
8117,1465,1254,1232,1477,6345,10415,15030,6345
8117,1467,1255,1225,1481,6345,10415,15030,6345
7751,1469,1275,1232,1481,6345,10415,15030,6345
8117,1461,1261,1185,1470,6345,10415,15030,6345
8117,1464,1248,1234,1484,6345,10415,15030,6345
7751,1459,1246,1211,1482,6345,10415,15030,6345
8117,1463,1262,1227,1476,6345,10415,15030,6345
8117,1466,1240,1232,1485,6345,10415,15030,6345
7751,1466,1281,1209,1480,6345,10415,15030,6345
8117,1469,1242,1228,1479,6345,10415,15030,6345
8117,1470,1255,1225,1485,6345,10415,15030,6345
7751,1469,1240,1208,1480,6345,10415,15030,6345
8117,1466,1237,1227,1477,6345,10415,15030,6345
8087,1460,1257,1228,1476,6345,10415,15030,6345
7751,1461,1261,1228,1490,6345,10415,15030,6345
8117,1465,1278,1232,1482,6345,10415,15030,6345
8117,1462,1259,1187,1476,6345,10415,15030,6345
7751,1464,1251,1237,1496,6345,10415,15030,6345
8117,1464,1240,1209,1483,6345,10415,15030,6345
8117,1467,1256,1226,1478,6345,10415,15030,6345
8117,1467,1236,1231,1486,6345,10415,15030,6345
7751,1469,1284,1207,1485,6345,10415,15030,6345
8117,1467,1244,1228,1477,6345,10415,15030,6345
8117,1461,1255,1235,1490,6345,10415,15030,6345
7751,1464,1240,1210,1480,6345,10415,15030,6345
8117,1463,1241,1232,1478,6345,10415,15030,6345
8117,1467,1263,1233,1487,6345,10415,15030,6345
7751,1466,1277,1206,1489,6345,10415,15030,6345
8117,1468,1240,1229,1476,6345,10415,15030,6345
8117,1465,1261,1184,1493,6345,10415,15030,6345
7751,1473,1236,1229,1485,6345,10415,15030,6345
8117,1464,1244,1232,1480,6345,10415,15030,6345
8117,1466,1262,1233,1475,6345,10415,15030,6345
7751,1460,1242,1231,1487,6345,10415,15030,6345
8117,1464,1286,1224,1477,6345,10415,15030,6345
8087,1459,1246,1223,1475,6345,10415,15030,6345
8117,1470,1257,1228,1484,6345,10415,15030,6345
7751,1466,1235,1207,1483,6345,10415,15030,6345
8117,1464,1241,1230,1471,6345,10415,15030,6345
8117,1467,1262,1222,1486,6345,10415,15030,6345
7751,1458,1276,1205,1484,6345,10415,15030,6345
8117,1463,1229,1226,1474,6345,10415,15030,6345
8117,1466,1253,1175,1486,6345,10415,15030,6345
7751,1473,1235,1220,1484,6345,10415,15030,6345
8117,1464,1230,1216,1474,6345,10415,15030,6345
8117,1464,1250,1215,1494,6345,10415,15030,6345
7751,1460,1226,1216,1488,6345,10415,15030,6345
8117,1463,1263,1203,1477,6345,10415,15030,6345
8117,1471,1248,1196,1477,6345,10415,15030,6345
7751,1466,1265,1212,1489,6345,10415,15030,6345
8117,1464,1225,1195,1476,6345,10415,15030,6345
8117,1466,1239,1218,1475,6345,10415,15030,6345
7751,1460,1252,1203,1491,6345,10415,15030,6345
8117,1468,1273,1206,1482,6345,10415,15030,6345
8087,1468,1234,1228,1472,6345,10415,15030,6345
8117,1462,1259,1190,1486,6345,10415,15030,6345
7751,1468,1237,1230,1483,6345,10415,15030,6345
8117,1463,1239,1225,1480,6345,10415,15030,6345
8117,1471,1260,1230,1487,6345,10415,15030,6345
7751,1468,1231,1227,1484,6345,10415,15030,6345
8117,1472,1283,1223,1476,6345,10415,15030,6345
8117,1458,1262,1219,1488,6345,10415,15030,6345
7751,1459,1271,1237,1488,6345,10415,15030,6345
8117,1464,1242,1219,1479,6345,10415,15030,6345
8117,1459,1255,1236,1475,6345,10415,15030,6345
7751,1469,1253,1217,1488,6345,10415,15030,6345
8117,1464,1286,1211,1477,6345,10415,15030,6345
8117,1467,1254,1235,1473,6345,10415,15030,6345
7751,1468,1263,1214,1487,6345,10415,15030,6345
8117,1465,1250,1235,1480,6345,10415,15030,6345
8117,1466,1266,1222,1471,6345,10415,15030,6345
7751,1466,1265,1228,1487,6345,10415,15030,6345
8117,1469,1248,1227,1475,6345,10415,15030,6345
8087,1461,1285,1230,1474,6345,10415,15030,6345
8117,1469,1258,1216,1482,6345,10415,15030,6345
7751,1467,1275,1232,1482,6345,10415,15030,6345
8117,1464,1245,1208,1474,6345,10415,15030,6345
8117,1464,1254,1237,1490,6345,10415,15030,6345
7751,1460,1245,1220,1490,6345,10415,15030,6345
8117,1461,1284,1218,1481,6345,10415,15030,6345
8117,1464,1251,1244,1473,6345,10415,15030,6345
7751,1460,1291,1220,1487,6345,10415,15030,6345
8117,1462,1254,1245,1478,6345,10415,15030,6345
8117,1469,1277,1247,1478,6345,10415,15030,6345
7751,1468,1276,1220,1491,6345,10415,15030,6345
8117,1465,1249,1237,1481,6345,10415,15030,6345
8117,1469,1277,1236,1472,6345,10415,15030,6345
7751,1465,1266,1190,1489,6345,10415,15030,6345
8117,1464,1253,1233,1481,6345,10415,15030,6345
8117,1464,1272,1183,1472,6345,10415,15030,6345
8117,1458,1266,1232,1485,6345,10415,15030,6345
7751,1466,1251,1230,1482,6345,10415,15030,6345
8117,1467,1263,1229,1473,6345,10415,15030,6345
8117,1466,1244,1231,1483,6345,10415,15030,6345
7751,1466,1288,1229,1484,6345,10415,15030,6345
8087,1458,1244,1235,1474,6345,10415,15030,6345
8117,1464,1267,1228,1474,6345,10415,15030,6345
7751,1465,1242,1210,1483,6345,10415,15030,6345
8117,1463,1249,1233,1477,6345,10415,15030,6345
8117,1465,1270,1236,1474,6345,10415,15030,6345
7751,1461,1266,1217,1485,6345,10415,15030,6345
8117,1466,1246,1232,1474,6345,10415,15030,6345
8117,1465,1271,1195,1473,6345,10415,15030,6345
7751,1465,1263,1232,1489,6345,10415,15030,6345
8117,1462,1243,1229,1477,6345,10415,15030,6345
8117,1466,1268,1232,1474,6345,10415,15030,6345
8117,1471,1251,1237,1483,6345,10415,15030,6345
7751,1466,1293,1232,1478,6345,10415,15030,6345
8117,1464,1265,1206,1472,6345,10415,15030,6345
8117,1466,1270,1243,1490,6345,10415,15030,6345
7751,1473,1255,1222,1487,6345,10415,15030,6345
8117,1465,1285,1241,1476,6345,10415,15030,6345
8117,1468,1266,1248,1487,6345,10415,15030,6345
7751,1467,1293,1220,1485,6345,10415,15030,6345
8087,1466,1251,1243,1482,6345,10415,15030,6345
8117,1467,1272,1197,1471,6345,10415,15030,6345
7751,1463,1270,1244,1487,6345,10415,15030,6345
8117,1463,1249,1243,1479,6345,10415,15030,6345
8117,1463,1272,1248,1475,6345,10415,15030,6345
7751,1466,1253,1245,1491,6345,10415,15030,6345
8117,1462,1291,1238,1480,6345,10415,15030,6345
8117,1464,1274,1212,1473,6345,10415,15030,6345
8117,1464,1264,1241,1485,6345,10415,15030,6345
7751,1467,1255,1219,1481,6345,10415,15030,6345
8117,1469,1273,1239,1471,6345,10415,15030,6345
8117,1464,1267,1241,1486,6345,10415,15030,6345
7751,1466,1288,1218,1476,6345,10415,15030,6345
8117,1465,1249,1232,1476,6345,10415,15030,6345
8117,1466,1268,1198,1486,6345,10415,15030,6345
7751,1469,1256,1237,1477,6345,10415,15030,6345
8117,1460,1250,1237,1474,6345,10415,15030,6345
8117,1466,1273,1235,1488,6345,10415,15030,6345
7751,1469,1257,1240,1480,6345,10415,15030,6345
8087,1468,1297,1243,1480,6345,10415,15030,6345
8117,1465,1275,1212,1474,6345,10415,15030,6345
7751,1460,1265,1241,1488,6345,10415,15030,6345
8117,1466,1257,1222,1479,6345,10415,15030,6345
8117,1466,1279,1245,1475,6345,10415,15030,6345
8117,1460,1279,1248,1482,6345,10415,15030,6345
7751,1466,1299,1219,1475,6345,10415,15030,6345
8117,1469,1255,1231,1470,6345,10415,15030,6345
8117,1466,1272,1198,1483,6345,10415,15030,6345
7751,1466,1251,1234,1480,6345,10415,15030,6345
8117,1465,1274,1233,1479,6345,10415,15030,6345
8117,1469,1271,1233,1486,6345,10415,15030,6345
7751,1465,1258,1233,1487,6345,10415,15030,6345
8117,1464,1296,1234,1476,6345,10415,15030,6345
8117,1459,1276,1194,1488,6345,10415,15030,6345
7751,1468,1257,1241,1484,6345,10415,15030,6345
8117,1462,1272,1220,1478,6345,10415,15030,6345
8117,1469,1280,1238,1473,6345,10415,15030,6345
7751,1467,1258,1238,1485,6345,10415,15030,6345
8087,1467,1304,1214,1481,6345,10415,15030,6345
8117,1469,1259,1236,1476,6345,10415,15030,6345
8117,1466,1277,1204,1482,6345,10415,15030,6345
7751,1461,1264,1234,1483,6345,10415,15030,6345
8117,1462,1276,1229,1476,6345,10415,15030,6345
8117,1462,1280,1241,1482,6345,10415,15030,6345
7751,1469,1260,1233,1478,6345,10415,15030,6345
8117,1464,1273,1235,1476,6345,10415,15030,6345
8117,1466,1277,1187,1484,6345,10415,15030,6345
7751,1464,1260,1236,1484,6345,10415,15030,6345
8117,1463,1253,1188,1475,6345,10415,15030,6345
8117,1465,1278,1241,1485,6345,10415,15030,6345
7751,1460,1258,1236,1479,6345,10415,15030,6345
8117,1466,1292,1214,1474,6345,10415,15030,6345
8117,1468,1259,1236,1471,6345,10415,15030,6345
7751,1468,1300,1231,1481,6345,10415,15030,6345
8117,1467,1254,1211,1480,6345,10415,15030,6345
8117,1466,1269,1236,1473,6345,10415,15030,6345
7751,1470,1258,1210,1483,6345,10415,15030,6345
8117,1464,1295,1219,1480,6345,10415,15030,6345
8117,1461,1269,1231,1473,6345,10415,15030,6345
7751,1464,1274,1212,1494,6345,10415,15030,6345
8087,1464,1263,1232,1482,6345,10415,15030,6345
8117,1466,1275,1187,1473,6345,10415,15030,6345
8117,1469,1279,1232,1487,6345,10415,15030,6345
7751,1465,1260,1239,1485,6345,10415,15030,6345
8117,1465,1295,1241,1473,6345,10415,15030,6345
8117,1460,1259,1241,1488,6345,10415,15030,6345
7751,1469,1309,1235,1482,6345,10415,15030,6345
8117,1462,1265,1221,1476,6345,10415,15030,6345
8117,1461,1273,1233,1492,6345,10415,15030,6345
7751,1466,1262,1217,1483,6345,10415,15030,6345
8117,1461,1306,1227,1482,6345,10415,15030,6345
8117,1466,1278,1241,1474,6345,10415,15030,6345
7751,1463,1298,1216,1482,6345,10415,15030,6345
8117,1462,1260,1240,1481,6345,10415,15030,6345
8117,1470,1285,1209,1476,6345,10415,15030,6345
7751,1473,1277,1238,1488,6345,10415,15030,6345
8117,1466,1262,1242,1475,6345,10415,15030,6345
8117,1469,1285,1244,1472,6345,10415,15030,6345
7751,1461,1268,1243,1491,6345,10415,15030,6345
8117,1467,1304,1244,1478,6345,10415,15030,6345
8117,1466,1287,1197,1474,6345,10415,15030,6345
8117,1470,1263,1241,1485,6345,10415,15030,6345
7751,1473,1263,1219,1481,6345,10415,15030,6345
8117,1465,1287,1243,1475,6345,10415,15030,6345
8117,1464,1263,1248,1482,6345,10415,15030,6345
7751,1467,1314,1221,1482,6345,10415,15030,6345
8117,1463,1264,1247,1475,6345,10415,15030,6345
8117,1461,1285,1245,1483,6345,10415,15030,6345
7751,1467,1264,1227,1477,6345,10415,15030,6345
8117,1464,1272,1244,1473,6345,10415,15030,6345
8117,1466,1292,1243,1486,6345,10415,15030,6345
7751,1466,1306,1233,1487,6345,10415,15030,6345
8117,1467,1295,1244,1481,6345,10415,15030,6345
8117,1461,1290,1194,1469,6345,10415,15030,6345
7751,1473,1271,1248,1489,6345,10415,15030,6345
8117,1466,1271,1231,1476,6345,10415,15030,6345
8117,1466,1288,1244,1474,6345,10415,15030,6345
7751,1466,1268,1241,1498,6345,10415,15030,6345
8117,1468,1302,1225,1479,6345,10415,15030,6345
8117,1466,1272,1248,1476,6345,10415,15030,6345
8117,1462,1288,1242,1484,6345,10415,15030,6345
7751,1466,1270,1219,1477,6345,10415,15030,6345
8117,1464,1270,1242,1474,6345,10415,15030,6345
8117,1463,1285,1242,1483,6345,10415,15030,6345
7751,1467,1299,1217,1478,6345,10415,15030,6345
8117,1465,1265,1239,1473,6345,10415,15030,6345
8117,1467,1284,1197,1481,6345,10415,15030,6345
7751,1466,1272,1237,1482,6345,10415,15030,6345
8117,1463,1262,1241,1475,6345,10415,15030,6345
8117,1461,1283,1245,1490,6345,10415,15030,6345
7751,1461,1262,1248,1485,6345,10415,15030,6345
8117,1463,1306,1246,1477,6345,10415,15030,6345
8117,1469,1287,1199,1472,6345,10415,15030,6345
7751,1466,1289,1242,1484,6345,10415,15030,6345
8117,1466,1258,1222,1472,6345,10415,15030,6345
8117,1460,1290,1236,1468,6345,10415,15030,6345
7751,1454,1264,1238,1480,6345,10415,15030,6345
8117,1464,1311,1225,1478,6345,10415,15030,6345
8117,1467,1264,1246,1472,6345,10415,15030,6345
7751,1462,1285,1230,1489,6345,10415,15030,6345
8117,1471,1267,1242,1476,6345,10415,15030,6345
8117,1469,1289,1251,1470,6345,10415,15030,6345
8117,1469,1290,1250,1481,6345,10415,15030,6345
7751,1463,1279,1246,1485,6345,10415,15030,6345
8117,1462,1292,1258,1472,6345,10415,15030,6345
8117,1461,1289,1205,1486,6345,10415,15030,6345
7751,1464,1277,1248,1486,6345,10415,15030,6345
8117,1467,1288,1199,1475,6345,10415,15030,6345
8117,1466,1293,1252,1484,6345,10415,15030,6345
7751,1473,1269,1248,1487,6345,10415,15030,6345
8117,1467,1311,1244,1475,6345,10415,15030,6345
8117,1470,1263,1248,1489,6345,10415,15030,6345
7751,1462,1312,1248,1484,6345,10415,15030,6345
8117,1468,1267,1223,1476,6345,10415,15030,6345
8117,1461,1273,1247,1469,6345,10415,15030,6345
7751,1467,1264,1222,1490,6345,10415,15030,6345
8117,1466,1306,1227,1480,6345,10415,15030,6345
8117,1466,1284,1244,1471,6345,10415,15030,6345
7751,1461,1311,1221,1487,6345,10415,15030,6345
8117,1465,1272,1247,1478,6345,10415,15030,6345
8117,1466,1291,1221,1474,6345,10415,15030,6345
7751,1461,1291,1237,1486,6345,10415,15030,6345
8117,1468,1262,1246,1481,6345,10415,15030,6345
8117,1461,1295,1246,1468,6345,10415,15030,6345
8117,1466,1279,1236,1479,6345,10415,15030,6345
7751,1466,1320,1244,1482,6345,10415,15030,6345
8117,1466,1294,1202,1473,6345,10415,15030,6345
8117,1463,1281,1249,1482,6345,10415,15030,6345
7751,1464,1272,1227,1479,6345,10415,15030,6345
8117,1463,1292,1240,1472,6345,10415,15030,6345
8117,1466,1272,1246,1482,6345,10415,15030,6345
7751,1466,1322,1217,1477,6345,10415,15030,6345
8117,1465,1272,1239,1470,6345,10415,15030,6345
8117,1469,1294,1234,1481,6345,10415,15030,6345
7751,1469,1270,1214,1481,6345,10415,15030,6345
8117,1466,1267,1246,1479,6345,10415,15030,6345
8117,1467,1288,1241,1472,6345,10415,15030,6345
7751,1466,1318,1217,1488,6345,10415,15030,6345
8117,1468,1286,1240,1475,6345,10415,15030,6345
8117,1464,1287,1192,1474,6345,10415,15030,6345
7751,1469,1276,1242,1486,6345,10415,15030,6345
8117,1468,1268,1235,1483,6345,10415,15030,6345
8117,1469,1291,1241,1476,6345,10415,15030,6345
7751,1469,1266,1243,1493,6345,10415,15030,6345
8117,1469,1320,1227,1480,6345,10415,15030,6345
8117,1464,1280,1237,1472,6345,10415,15030,6345
8117,1468,1291,1244,1485,6345,10415,15030,6345
7751,1462,1272,1220,1482,6345,10415,15030,6345
8117,1464,1281,1244,1474,6345,10415,15030,6345
8117,1458,1289,1244,1488,6345,10415,15030,6345
7751,1464,1312,1222,1480,6345,10415,15030,6345
8117,1465,1268,1248,1475,6345,10415,15030,6345
8117,1466,1295,1195,1486,6345,10415,15030,6345
7751,1466,1262,1238,1481,6345,10415,15030,6345
8117,1461,1268,1240,1473,6345,10415,15030,6345
8117,1462,1288,1237,1486,6345,10415,15030,6345
7751,1464,1268,1240,1483,6345,10415,15030,6345
8117,1465,1308,1233,1472,6345,10415,15030,6345
8117,1466,1289,1193,1472,6345,10415,15030,6345
7751,1462,1270,1239,1487,6345,10415,15030,6345
8117,1462,1262,1219,1473,6345,10415,15030,6345
8117,1473,1290,1235,1472,6345,10415,15030,6345
7751,1460,1264,1239,1481,6345,10415,15030,6345
8117,1471,1304,1221,1476,6345,10415,15030,6345
8117,1469,1271,1245,1472,6345,10415,15030,6345
7751,1466,1293,1227,1482,6345,10415,15030,6345
8117,1465,1273,1242,1473,6345,10415,15030,6345
8117,1464,1288,1242,1472,6345,10415,15030,6345
8117,1464,1290,1245,1487,6345,10415,15030,6345
7751,1458,1285,1238,1479,6345,10415,15030,6345
8117,1461,1289,1236,1476,6345,10415,15030,6345
8117,1467,1289,1200,1487,6345,10415,15030,6345
7751,1466,1276,1243,1479,6345,10415,15030,6345
8117,1467,1295,1203,1473,6345,10415,15030,6345
8117,1463,1296,1247,1491,6345,10415,15030,6345
7751,1461,1276,1251,1488,6345,10415,15030,6345
8117,1467,1315,1230,1478,6345,10415,15030,6345
8117,1465,1277,1250,1490,6345,10415,15030,6345
7751,1467,1319,1254,1484,6345,10415,15030,6345
8117,1467,1278,1231,1474,6345,10415,15030,6345
8117,1469,1281,1249,1473,6345,10415,15030,6345
7751,1471,1274,1229,1485,6345,10415,15030,6345
8117,1463,1316,1229,1480,6345,10415,15030,6345
8117,1466,1288,1252,1474,6345,10415,15030,6345
7751,1461,1313,1221,1486,6345,10415,15030,6345
8117,1469,1277,1251,1476,6345,10415,15030,6345
8117,1466,1304,1237,1473,6345,10415,15030,6345
7751,1462,1302,1251,1486,6345,10415,15030,6345
8117,1467,1281,1253,1477,6345,10415,15030,6345
8117,1460,1306,1248,1474,6345,10415,15030,6345
8117,1471,1295,1248,1482,6345,10415,15030,6345
7751,1464,1320,1251,1481,6345,10415,15030,6345
8117,1459,1306,1209,1474,6345,10415,15030,6345
8117,1459,1295,1251,1479,6345,10415,15030,6345
7751,1466,1284,1232,1478,6345,10415,15030,6345
8117,1460,1307,1255,1476,6345,10415,15030,6345
8117,1472,1291,1253,1485,6345,10415,15030,6345
7751,1471,1329,1231,1479,6345,10415,15030,6345
8117,1464,1290,1252,1472,6345,10415,15030,6345
8117,1461,1309,1243,1491,6345,10415,15030,6345
7751,1466,1284,1226,1487,6345,10415,15030,6345
8117,1466,1285,1245,1479,6345,10415,15030,6345
7843,1465,1286,1240,1493,6345,10377,15030,6345
8117,1465,1273,1215,1476,6345,10377,15030,6345
8117,1467,1232,1236,1473,6345,10377,15030,6345
7751,1469,1251,1235,1491,6345,10377,15030,6345
8117,1469,1232,1219,1478,6345,10377,15030,6345
8117,1466,1227,1238,1470,6345,10377,15030,6345
8117,1469,1251,1241,1485,6345,10377,15030,6345
7751,1462,1262,1222,1483,6345,10377,15030,6345
8117,1464,1234,1243,1475,6345,10377,15030,6345
8117,1458,1257,1200,1487,6345,10377,15030,6345
7751,1466,1233,1251,1485,6345,10377,15030,6345
8117,1465,1232,1246,1470,6345,10377,15030,6345
8117,1467,1250,1248,1489,6345,10377,15030,6345
7751,1469,1226,1244,1480,6345,10377,15030,6345
8117,1463,1276,1233,1475,6345,10377,15030,6345
8117,1469,1247,1232,1489,6345,10377,15030,6345
7751,1461,1267,1240,1485,6345,10377,15030,6345
8117,1462,1226,1219,1470,6345,10377,15030,6345
8117,1460,1235,1241,1474,6345,10377,15030,6345
7751,1469,1224,1228,1487,6345,10377,15030,6345
8117,1463,1266,1226,1476,6345,10377,15030,6345
8117,1461,1233,1255,1469,6345,10377,15030,6345
7751,1469,1253,1233,1484,6345,10377,15030,6345
8117,1464,1239,1256,1474,6345,10377,15030,6345
8117,1461,1259,1258,1470,6345,10377,15030,6345
7751,1462,1262,1262,1487,6345,10377,15030,6345
8117,1466,1243,1259,1473,6345,10377,15030,6345
8117,1473,1264,1258,1473,6345,10377,15030,6345
8117,1464,1262,1214,1481,6345,10377,15030,6345
7751,1476,1242,1254,1482,6345,10377,15030,6345
8117,1462,1265,1209,1473,6345,10377,15030,6345
8117,1466,1258,1251,1487,6345,10377,15030,6345
7751,1466,1230,1250,1480,6345,10377,15030,6345
8117,1467,1271,1260,1477,6345,10377,15030,6345
8117,1467,1236,1253,1492,6345,10377,15030,6345
7751,1459,1283,1240,1485,6345,10377,15030,6345
8117,1464,1238,1241,1478,6345,10377,15030,6345
8117,1466,1252,1255,1488,6345,10377,15030,6345
7751,1473,1242,1231,1488,6345,10377,15030,6345
8117,1467,1253,1249,1480,6345,10377,15030,6345
8117,1461,1260,1260,1473,6345,10377,15030,6345
7751,1462,1284,1235,1488,6345,10377,15030,6345
8117,1462,1241,1256,1477,6345,10377,15030,6345
8117,1463,1260,1218,1474,6345,10377,15030,6345
7751,1461,1260,1249,1486,6345,10377,15030,6345
8117,1465,1241,1249,1480,6345,10377,15030,6345
8117,1463,1261,1253,1471,6345,10377,15030,6345
7751,1467,1238,1252,1491,6345,10377,15030,6345
8117,1465,1288,1256,1477,6345,10377,15030,6345
8117,1462,1259,1208,1475,6345,10377,15030,6345
8117,1471,1244,1255,1482,6345,10377,15030,6345
7751,1466,1240,1230,1475,6345,10377,15030,6345
8117,1462,1257,1250,1474,6345,10377,15030,6345
8117,1467,1242,1257,1483,6345,10377,15030,6345
7751,1469,1286,1227,1477,6345,10377,15030,6345
8117,1464,1251,1255,1471,6345,10377,15030,6345
8117,1464,1269,1248,1483,6345,10377,15030,6345
7751,1461,1253,1239,1483,6345,10377,15030,6345
8117,1470,1242,1248,1475,6345,10377,15030,6345
8117,1466,1263,1248,1487,6345,10377,15030,6345
7751,1465,1274,1239,1479,6345,10377,15030,6345
8117,1463,1281,1243,1478,6345,10377,15030,6345
8117,1463,1259,1203,1472,6345,10377,15030,6345
7751,1464,1243,1253,1492,6345,10377,15030,6345
8117,1464,1244,1230,1478,6345,10377,15030,6345
8117,1469,1267,1249,1477,6345,10377,15030,6345
7751,1463,1246,1248,1493,6345,10377,15030,6345
8117,1465,1286,1222,1476,6345,10377,15030,6345
8117,1466,1247,1245,1476,6345,10377,15030,6345
7751,1465,1269,1241,1491,6345,10377,15030,6345
8117,1462,1247,1226,1481,6345,10377,15030,6345
8117,1469,1248,1246,1474,6345,10377,15030,6345
8117,1470,1265,1243,1483,6345,10377,15030,6345
7751,1466,1277,1220,1479,6345,10377,15030,6345
8117,1463,1240,1242,1475,6345,10377,15030,6345
8117,1469,1265,1197,1486,6345,10377,15030,6345
7751,1466,1242,1244,1483,6345,10377,15030,6345
8117,1463,1246,1237,1473,6345,10377,15030,6345
8117,1473,1262,1246,1487,6345,10377,15030,6345
7751,1470,1246,1247,1485,6345,10377,15030,6345
8117,1467,1288,1238,1476,6345,10377,15030,6345
8117,1466,1263,1229,1490,6345,10377,15030,6345
7751,1471,1278,1239,1484,6345,10377,15030,6345
8117,1467,1248,1222,1478,6345,10377,15030,6345
8117,1462,1260,1243,1473,6345,10377,15030,6345
7751,1461,1246,1231,1485,6345,10377,15030,6345
8117,1467,1284,1219,1477,6345,10377,15030,6345
8117,1461,1246,1248,1471,6345,10377,15030,6345
7751,1466,1267,1223,1486,6345,10377,15030,6345
8117,1462,1249,1243,1477,6345,10377,15030,6345
8117,1466,1268,1239,1470,6345,10377,15030,6345
7751,1460,1268,1241,1484,6345,10377,15030,6345
8117,1471,1248,1234,1474,6345,10377,15030,6345
8117,1462,1269,1240,1469,6345,10377,15030,6345
8117,1467,1260,1192,1489,6345,10377,15030,6345
7751,1462,1246,1241,1485,6345,10377,15030,6345
8117,1467,1265,1195,1480,6345,10377,15030,6345
8117,1469,1265,1235,1486,6345,10377,15030,6345
7751,1467,1242,1244,1487,6345,10377,15030,6345
8117,1465,1287,1244,1477,6345,10377,15030,6345
8117,1466,1249,1251,1489,6345,10377,15030,6345
7751,1462,1284,1249,1486,6345,10377,15030,6345
8117,1465,1246,1236,1477,6345,10377,15030,6345
8117,1469,1263,1247,1487,6345,10377,15030,6345
7751,1469,1239,1220,1491,6345,10377,15030,6345
8117,1463,1293,1239,1479,6345,10377,15030,6345
8117,1468,1267,1244,1471,6345,10377,15030,6345
7751,1466,1287,1223,1487,6345,10377,15030,6345
8117,1468,1249,1250,1480,6345,10377,15030,6345
8117,1466,1265,1208,1470,6345,10377,15030,6345
7751,1469,1265,1248,1488,6345,10377,15030,6345
8117,1461,1240,1246,1476,6345,10377,15030,6345
8117,1469,1263,1248,1472,6345,10377,15030,6345
8117,1467,1248,1258,1483,6345,10377,15030,6345
7751,1466,1290,1252,1477,6345,10377,15030,6345
8117,1469,1270,1205,1471,6345,10377,15030,6345
8117,1466,1251,1249,1481,6345,10377,15030,6345
7751,1466,1248,1231,1479,6345,10377,15030,6345
8117,1462,1270,1255,1467,6345,10377,15030,6345
8117,1462,1248,1246,1483,6345,10377,15030,6345
7751,1464,1285,1227,1478,6345,10377,15030,6345
8117,1467,1250,1246,1476,6345,10377,15030,6345
8117,1466,1269,1242,1485,6345,10377,15030,6345
7751,1461,1244,1226,1482,6345,10377,15030,6345
8117,1466,1235,1246,1471,6345,10377,15030,6345
8117,1469,1264,1244,1472,6345,10377,15030,6345
7751,1469,1284,1238,1490,6345,10377,15030,6345
8117,1468,1283,1243,1477,6345,10377,15030,6345
8117,1461,1263,1205,1474,6345,10377,15030,6345
7751,1461,1249,1247,1489,6345,10377,15030,6345
8117,1467,1243,1229,1477,6345,10377,15030,6345
8117,1468,1264,1253,1472,6345,10377,15030,6345
7751,1461,1242,1245,1491,6345,10377,15030,6345
8117,1461,1281,1226,1479,6345,10377,15030,6345
8117,1466,1244,1244,1474,6345,10377,15030,6345
8117,1461,1262,1244,1483,6345,10377,15030,6345
7751,1464,1241,1216,1479,6345,10377,15030,6345
8117,1465,1238,1241,1476,6345,10377,15030,6345
8117,1467,1263,1240,1486,6345,10377,15030,6345
7751,1466,1278,1222,1485,6345,10377,15030,6345
8117,1467,1242,1253,1476,6345,10377,15030,6345
8117,1467,1262,1202,1486,6345,10377,15030,6345
7751,1469,1243,1247,1480,6345,10377,15030,6345
8117,1468,1243,1243,1477,6345,10377,15030,6345
8117,1464,1265,1248,1488,6345,10377,15030,6345
7751,1461,1244,1247,1478,6345,10377,15030,6345
8117,1463,1287,1249,1476,6345,10377,15030,6345
8117,1462,1255,1211,1471,6345,10377,15030,6345
7751,1469,1272,1249,1488,6345,10377,15030,6345
8117,1467,1251,1225,1477,6345,10377,15030,6345
8117,1460,1266,1249,1471,6345,10377,15030,6345
7751,1461,1244,1237,1483,6345,10377,15030,6345
8117,1465,1282,1230,1476,6345,10377,15030,6345
8117,1466,1246,1252,1470,6345,10377,15030,6345
7751,1462,1268,1234,1486,6345,10377,15030,6345
8117,1465,1247,1251,1477,6345,10377,15030,6345
8117,1466,1267,1252,1471,6345,10377,15030,6345
8117,1460,1269,1244,1489,6345,10377,15030,6345
7751,1467,1255,1246,1482,6345,10377,15030,6345
8117,1469,1271,1245,1472,6345,10377,15030,6345
8117,1470,1266,1204,1486,6345,10377,15030,6345
7751,1461,1246,1243,1480,6345,10377,15030,6345
8117,1466,1267,1198,1474,6345,10377,15030,6345
8117,1461,1264,1246,1487,6345,10377,15030,6345
7751,1464,1241,1245,1484,6345,10377,15030,6345
8117,1462,1289,1241,1473,6345,10377,15030,6345
8117,1467,1250,1250,1490,6345,10377,15030,6345
7751,1467,1291,1246,1485,6345,10377,15030,6345
8117,1468,1251,1228,1474,6345,10377,15030,6345
8117,1464,1259,1234,1469,6345,10377,15030,6345
7751,1466,1243,1216,1487,6345,10377,15030,6345
8117,1469,1286,1231,1474,6345,10377,15030,6345
8117,1465,1266,1241,1474,6345,10377,15030,6345
7751,1470,1284,1210,1486,6345,10377,15030,6345
8117,1465,1247,1238,1479,6345,10377,15030,6345
8117,1461,1270,1204,1472,6345,10377,15030,6345
7751,1466,1264,1229,1488,6345,10377,15030,6345
8117,1467,1244,1234,1475,6345,10377,15030,6345
8117,1466,1266,1231,1475,6345,10377,15030,6345
8117,1469,1248,1233,1484,6345,10377,15030,6345
7751,1464,1290,1227,1482,6345,10377,15030,6345
8117,1466,1265,1181,1472,6345,10377,15030,6345
8117,1465,1245,1228,1483,6345,10377,15030,6345
7751,1471,1236,1214,1477,6345,10377,15030,6345
8117,1469,1264,1230,1474,6345,10377,15030,6345
8117,1464,1247,1236,1483,6345,10377,15030,6345
7751,1464,1293,1206,1480,6345,10377,15030,6345
8117,1466,1254,1233,1474,6345,10377,15030,6345
8117,1467,1268,1233,1481,6345,10377,15030,6345
7751,1464,1251,1206,1491,6345,10377,15030,6345
8117,1467,1248,1228,1477,6345,10377,15030,6345
8117,1467,1264,1232,1472,6345,10377,15030,6345
7751,1460,1278,1202,1486,6345,10377,15030,6345
8117,1469,1267,1221,1476,6345,10377,15030,6345
8117,1469,1259,1171,1471,6345,10377,15030,6345
7751,1466,1240,1220,1492,6345,10377,15030,6345
8117,1463,1241,1207,1478,6345,10377,15030,6345
8117,1464,1258,1226,1477,6345,10377,15030,6345
7751,1464,1244,1221,1485,6345,10377,15030,6345
8117,1466,1278,1204,1479,6345,10377,15030,6345
8117,1460,1247,1222,1475,6345,10377,15030,6345
8117,1454,1259,1222,1484,6345,10377,15030,6345
7751,1459,1250,1201,1482,6345,10377,15030,6345
8117,1459,1244,1221,1475,6345,10377,15030,6345
8117,1461,1267,1222,1485,6345,10377,15030,6345
7751,1469,1273,1200,1479,6345,10377,15030,6345
8117,1464,1237,1223,1475,6345,10377,15030,6345
8117,1469,1260,1172,1488,6345,10377,15030,6345
7751,1462,1241,1221,1480,6345,10377,15030,6345
8117,1462,1236,1219,1472,6345,10377,15030,6345
8117,1463,1261,1223,1485,6345,10377,15030,6345
7751,1465,1244,1224,1481,6345,10377,15030,6345
8117,1466,1286,1223,1476,6345,10377,15030,6345
8117,1466,1253,1175,1470,6345,10377,15030,6345
7751,1459,1268,1222,1481,6345,10377,15030,6345
8117,1465,1233,1196,1474,6345,10377,15030,6345
8117,1467,1260,1219,1470,6345,10377,15030,6345
7751,1460,1244,1208,1483,6345,10377,15030,6345
8117,1468,1277,1197,1477,6345,10377,15030,6345
8117,1461,1236,1222,1472,6345,10377,15030,6345
7751,1468,1258,1190,1485,6345,10377,15030,6345
8117,1466,1235,1217,1486,6345,10377,15030,6345
8117,1464,1256,1223,1475,6345,10377,15030,6345
8117,1464,1258,1226,1484,6345,10377,15030,6345
7751,1463,1241,1221,1482,6345,10377,15030,6345
8117,1460,1254,1225,1470,6345,10377,15030,6345
8117,1460,1251,1180,1487,6345,10377,15030,6345
7751,1466,1232,1222,1480,6345,10377,15030,6345
8117,1466,1256,1180,1475,6345,10377,15030,6345
8117,1469,1256,1226,1487,6345,10377,15030,6345
7751,1469,1239,1225,1480,6345,10377,15030,6345
8117,1461,1278,1200,1477,6345,10377,15030,6345
8117,1462,1241,1226,1491,6345,10377,15030,6345
7751,1469,1275,1223,1484,6345,10377,15030,6345
8117,1468,1228,1198,1480,6345,10377,15030,6345
8117,1467,1243,1218,1478,6345,10377,15030,6345
7751,1466,1231,1193,1488,6345,10377,15030,6345
8117,1464,1263,1197,1475,6345,10377,15030,6345
8117,1469,1242,1218,1473,6345,10377,15030,6345
7751,1467,1270,1197,1484,6345,10377,15030,6345
8117,1469,1228,1217,1480,6345,10377,15030,6345
8117,1469,1247,1192,1471,6345,10377,15030,6345
7751,1462,1247,1218,1493,6345,10377,15030,6345
8117,1466,1220,1215,1480,6345,10377,15030,6345
8117,1469,1249,1208,1470,6345,10377,15030,6345
8117,1460,1233,1212,1484,6345,10377,15030,6345
7751,1469,1273,1213,1474,6345,10377,15030,6345
8117,1470,1242,1174,1474,6345,10377,15030,6345
8117,1462,1225,1221,1485,6345,10377,15030,6345
7751,1466,1221,1194,1479,6345,10377,15030,6345
8117,1465,1251,1217,1473,6345,10377,15030,6345
8117,1469,1224,1215,1486,6345,10377,15030,6345
7751,1465,1264,1197,1478,6345,10377,15030,6345
8117,1465,1225,1229,1480,6345,10377,15030,6345
8117,1473,1246,1221,1490,6345,10377,15030,6345
7751,1473,1230,1201,1487,6345,10377,15030,6345
8117,1469,1221,1224,1477,6345,10377,15030,6345
8117,1467,1242,1221,1471,6345,10377,15030,6345
7751,1469,1266,1201,1487,6345,10377,15030,6345
8117,1466,1244,1224,1477,6345,10377,15030,6345
8117,1461,1249,1177,1475,6345,10377,15030,6345
7751,1466,1244,1225,1488,6345,10377,15030,6345
8117,1466,1225,1226,1479,6345,10377,15030,6345
8117,1463,1249,1224,1473,6345,10377,15030,6345
7751,1464,1231,1222,1488,6345,10377,15030,6345
8117,1462,1269,1216,1482,6345,10377,15030,6345
8117,1463,1239,1222,1475,6345,10377,15030,6345
8117,1470,1246,1227,1485,6345,10377,15030,6345
7751,1461,1227,1206,1482,6345,10377,15030,6345
8117,1466,1239,1232,1474,6345,10377,15030,6345
8117,1461,1253,1228,1481,6345,10377,15030,6345
7751,1462,1273,1209,1482,6345,10377,15030,6345
8117,1465,1236,1235,1474,6345,10377,15030,6345
8117,1467,1255,1183,1486,6345,10377,15030,6345
7751,1466,1234,1229,1480,6345,10377,15030,6345
8117,1465,1227,1232,1474,6345,10377,15030,6345
8117,1469,1251,1225,1485,6345,10377,15030,6345
7751,1466,1233,1225,1483,6345,10377,15030,6345
8117,1465,1276,1227,1479,6345,10377,15030,6345
8117,1464,1252,1187,1470,6345,10377,15030,6345
7751,1467,1229,1233,1488,6345,10377,15030,6345
8117,1465,1232,1207,1477,6345,10377,15030,6345
8117,1469,1252,1222,1475,6345,10377,15030,6345
7751,1462,1247,1220,1488,6345,10377,15030,6345
8117,1463,1277,1205,1473,6345,10377,15030,6345
8117,1473,1238,1240,1476,6345,10377,15030,6345
7751,1463,1255,1207,1492,6345,10377,15030,6345
8117,1468,1236,1225,1480,6345,10377,15030,6345
8117,1465,1255,1224,1474,6345,10377,15030,6345
8117,1463,1257,1224,1482,6345,10377,15030,6345
7751,1463,1241,1220,1479,6345,10377,15030,6345
8117,1464,1250,1226,1474,6345,10377,15030,6345
8117,1466,1247,1175,1488,6345,10377,15030,6345
7751,1461,1229,1224,1484,6345,10377,15030,6345
8117,1466,1226,1176,1475,6345,10377,15030,6345
8117,1462,1250,1221,1486,6345,10377,15030,6345
7751,1467,1232,1223,1487,6345,10377,15030,6345
8117,1466,1273,1196,1475,6345,10377,15030,6345
8117,1466,1233,1228,1487,6345,10377,15030,6345
7751,1469,1277,1229,1486,6345,10377,15030,6345
8117,1465,1233,1205,1479,6345,10377,15030,6345
8117,1466,1233,1219,1472,6345,10377,15030,6345
7751,1465,1233,1199,1487,6345,10377,15030,6345
8117,1464,1269,1195,1478,6345,10377,15030,6345
8117,1474,1240,1221,1472,6345,10377,15030,6345
7751,1466,1246,1199,1487,6345,10377,15030,6345
8117,1470,1226,1225,1479,6345,10377,15030,6345
8117,1465,1244,1212,1473,6345,10377,15030,6345
7751,1464,1244,1215,1487,6345,10377,15030,6345
8117,1463,1220,1219,1478,6345,10377,15030,6345
8117,1469,1246,1218,1469,6345,10377,15030,6345
8117,1460,1233,1213,1484,6345,10377,15030,6345
7751,1471,1268,1221,1480,6345,10377,15030,6345
8117,1473,1245,1177,1471,6345,10377,15030,6345
8117,1466,1233,1223,1477,6345,10377,15030,6345
7751,1469,1230,1199,1480,6345,10377,15030,6345
8117,1463,1273,1223,1473,6345,10377,15030,6345
8117,1471,1225,1225,1487,6345,10377,15030,6345
7751,1469,1268,1199,1484,6345,10377,15030,6345
8117,1464,1233,1222,1476,6345,10377,15030,6345
8117,1469,1253,1230,1490,6345,10377,15030,6345
7751,1457,1236,1204,1486,6345,10377,15030,6345
8117,1465,1227,1225,1476,6345,10377,15030,6345
8117,1458,1254,1228,1474,6345,10377,15030,6345
7751,1464,1272,1214,1486,6345,10377,15030,6345
8117,1465,1222,1236,1477,6345,10377,15030,6345
8117,1466,1252,1190,1472,6345,10377,15030,6345
7751,1461,1251,1233,1492,6345,10377,15030,6345
8117,1467,1229,1233,1484,6345,10377,15030,6345
8117,1461,1252,1233,1471,6345,10377,15030,6345
7751,1461,1230,1238,1485,6345,10377,15030,6345
8117,1466,1273,1224,1481,6345,10377,15030,6345
8117,1461,1250,1230,1476,6345,10377,15030,6345
8117,1466,1251,1235,1481,6345,10377,15030,6345
7751,1463,1230,1214,1479,6345,10377,15030,6345
8117,1464,1243,1236,1474,6345,10377,15030,6345
8117,1459,1253,1237,1484,6345,10377,15030,6345
7751,1466,1270,1216,1475,6345,10377,15030,6345
8117,1465,1241,1241,1472,6345,10377,15030,6345
8117,1464,1261,1197,1483,6345,10377,15030,6345
7751,1463,1244,1239,1479,6345,10377,15030,6345
8117,1465,1236,1245,1474,6345,10377,15030,6345
8117,1458,1258,1248,1487,6345,10377,15030,6345
7751,1465,1236,1242,1482,6345,10377,15030,6345
8117,1464,1284,1242,1475,6345,10377,15030,6345
8117,1458,1261,1202,1470,6345,10377,15030,6345
7751,1466,1241,1240,1481,6345,10377,15030,6345
8117,1465,1235,1222,1473,6345,10377,15030,6345
8117,1465,1260,1242,1468,6345,10377,15030,6345
7751,1464,1246,1242,1492,6345,10377,15030,6345
8117,1466,1284,1221,1478,6345,10377,15030,6345
8117,1468,1232,1243,1473,6345,10377,15030,6345
7751,1466,1256,1225,1490,6345,10377,15030,6345
8117,1460,1235,1235,1479,6345,10377,15030,6345
8117,1464,1262,1248,1471,6345,10377,15030,6345
8117,1462,1257,1258,1485,6345,10377,15030,6345
7751,1459,1258,1246,1476,6345,10377,15030,6345
8117,1466,1260,1249,1473,6345,10377,15030,6345
8117,1462,1260,1202,1486,6345,10377,15030,6345
7751,1469,1239,1245,1479,6345,10377,15030,6345
8117,1465,1235,1202,1473,6345,10377,15030,6345
8117,1465,1260,1243,1487,6345,10377,15030,6345
7751,1463,1239,1244,1483,6345,10377,15030,6345
8117,1465,1277,1223,1476,6345,10377,15030,6345
8117,1467,1235,1239,1487,6345,10377,15030,6345
7751,1465,1283,1242,1484,6345,10377,15030,6345
8117,1466,1233,1223,1477,6345,10377,15030,6345
8117,1462,1238,1246,1472,6345,10377,15030,6345
7751,1468,1236,1228,1487,6345,10377,15030,6345
8117,1465,1281,1232,1477,6345,10377,15030,6345
8117,1464,1244,1255,1476,6345,10377,15030,6345
7751,1466,1263,1231,1486,6345,10377,15030,6345
8117,1462,1251,1256,1479,6345,10377,15030,6345
8117,1471,1266,1260,1470,6345,10377,15030,6345
7751,1466,1261,1250,1488,6345,10377,15030,6345
8209,1464,1263,1255,1472,6345,10358,15030,6345
8117,1467,1220,1260,1486,6345,10358,15030,6345
7751,1469,1260,1238,1478,6345,10358,15030,6345
8117,1467,1224,1266,1475,6345,10358,15030,6345
8117,1469,1246,1244,1482,6345,10358,15030,6345
7751,1468,1226,1250,1478,6345,10358,15030,6345
8117,1467,1223,1262,1481,6345,10358,15030,6345
8117,1464,1245,1260,1472,6345,10358,15030,6345
7751,1465,1251,1256,1489,6345,10358,15030,6345
8117,1469,1265,1257,1477,6345,10358,15030,6345
8117,1466,1246,1216,1474,6345,10358,15030,6345
7751,1473,1224,1251,1490,6345,10358,15030,6345
8117,1467,1223,1236,1479,6345,10358,15030,6345
8117,1465,1246,1252,1471,6345,10358,15030,6345
7751,1465,1222,1254,1487,6345,10358,15030,6345
8117,1467,1264,1236,1482,6345,10358,15030,6345
8117,1462,1225,1255,1473,6345,10358,15030,6345
8117,1467,1248,1260,1484,6345,10358,15030,6345
7751,1469,1228,1242,1484,6345,10358,15030,6345
8117,1467,1226,1255,1469,6345,10358,15030,6345
8117,1462,1249,1262,1486,6345,10358,15030,6345
7751,1465,1264,1240,1481,6345,10358,15030,6345
8117,1466,1224,1263,1470,6345,10358,15030,6345
8117,1465,1240,1211,1485,6345,10358,15030,6345
7751,1458,1228,1258,1482,6345,10358,15030,6345
8117,1464,1222,1256,1472,6345,10358,15030,6345
8117,1466,1244,1255,1485,6345,10358,15030,6345
7751,1464,1226,1260,1482,6345,10358,15030,6345
8117,1462,1261,1251,1474,6345,10358,15030,6345
8117,1463,1241,1236,1469,6345,10358,15030,6345
7751,1467,1263,1254,1485,6345,10358,15030,6345
8117,1468,1222,1238,1477,6345,10358,15030,6345
8117,1464,1232,1252,1471,6345,10358,15030,6345
7751,1465,1221,1243,1484,6345,10358,15030,6345
8117,1467,1263,1228,1474,6345,10358,15030,6345
8117,1461,1220,1254,1467,6345,10358,15030,6345
7751,1467,1242,1230,1483,6345,10358,15030,6345
8117,1465,1219,1255,1478,6345,10358,15030,6345
8117,1464,1238,1252,1476,6345,10358,15030,6345
8117,1465,1240,1259,1484,6345,10358,15030,6345
7751,1466,1219,1257,1484,6345,10358,15030,6345
8117,1466,1240,1255,1475,6345,10358,15030,6345
8117,1463,1240,1204,1483,6345,10358,15030,6345
7751,1460,1223,1254,1481,6345,10358,15030,6345
8117,1461,1240,1204,1472,6345,10358,15030,6345
8117,1458,1241,1258,1489,6345,10358,15030,6345
7751,1466,1218,1252,1489,6345,10358,15030,6345
8117,1465,1258,1234,1476,6345,10358,15030,6345
8117,1467,1219,1263,1488,6345,10358,15030,6345
7751,1466,1255,1257,1480,6345,10358,15030,6345
8117,1462,1214,1252,1476,6345,10358,15030,6345
8117,1463,1237,1254,1476,6345,10358,15030,6345
7751,1462,1226,1234,1483,6345,10358,15030,6345
8117,1464,1239,1255,1478,6345,10358,15030,6345
8117,1461,1245,1265,1473,6345,10358,15030,6345
7751,1469,1261,1245,1484,6345,10358,15030,6345
8117,1464,1230,1270,1477,6345,10358,15030,6345
8117,1464,1244,1233,1467,6345,10358,15030,6345
7751,1464,1253,1273,1486,6345,10358,15030,6345
8117,1463,1232,1269,1474,6345,10358,15030,6345
8117,1465,1245,1270,1471,6345,10358,15030,6345
8117,1462,1228,1269,1486,6345,10358,15030,6345
7751,1466,1264,1271,1475,6345,10358,15030,6345
8117,1460,1237,1228,1476,6345,10358,15030,6345
8117,1464,1225,1268,1481,6345,10358,15030,6345
7751,1460,1226,1251,1476,6345,10358,15030,6345
8117,1463,1246,1276,1474,6345,10358,15030,6345
8117,1461,1226,1286,1478,6345,10358,15030,6345
7751,1465,1271,1254,1481,6345,10358,15030,6345
8117,1463,1231,1281,1478,6345,10358,15030,6345
8117,1468,1253,1286,1489,6345,10358,15030,6345
7751,1466,1233,1267,1485,6345,10358,15030,6345
8117,1465,1226,1284,1474,6345,10358,15030,6345
8117,1471,1256,1283,1470,6345,10358,15030,6345
7751,1466,1262,1267,1487,6345,10358,15030,6345
8117,1460,1263,1282,1474,6345,10358,15030,6345
8117,1461,1248,1240,1471,6345,10358,15030,6345
7751,1466,1235,1282,1483,6345,10358,15030,6345
8117,1467,1228,1277,1477,6345,10358,15030,6345
8117,1466,1257,1287,1470,6345,10358,15030,6345
7751,1466,1235,1284,1492,6345,10358,15030,6345
8117,1467,1277,1270,1479,6345,10358,15030,6345
8117,1468,1239,1286,1472,6345,10358,15030,6345
8117,1464,1260,1288,1481,6345,10358,15030,6345
7751,1464,1233,1265,1481,6345,10358,15030,6345
8117,1470,1236,1285,1475,6345,10358,15030,6345
8117,1462,1252,1286,1484,6345,10358,15030,6345
7751,1461,1273,1259,1482,6345,10358,15030,6345
8117,1466,1229,1284,1476,6345,10358,15030,6345
8117,1469,1249,1241,1486,6345,10358,15030,6345
7751,1467,1232,1286,1480,6345,10358,15030,6345
8117,1467,1229,1289,1472,6345,10358,15030,6345
8117,1466,1248,1285,1482,6345,10358,15030,6345
7751,1470,1232,1289,1479,6345,10358,15030,6345
8117,1466,1277,1285,1473,6345,10358,15030,6345
8117,1466,1248,1260,1471,6345,10358,15030,6345
7751,1459,1265,1284,1488,6345,10358,15030,6345
8117,1466,1228,1262,1475,6345,10358,15030,6345
8117,1466,1238,1283,1469,6345,10358,15030,6345
7751,1461,1227,1270,1487,6345,10358,15030,6345
8117,1469,1268,1266,1476,6345,10358,15030,6345
8117,1462,1234,1285,1474,6345,10358,15030,6345
7751,1464,1254,1253,1493,6345,10358,15030,6345
8117,1466,1228,1294,1482,6345,10358,15030,6345
8117,1473,1251,1291,1477,6345,10358,15030,6345
8117,1466,1254,1291,1483,6345,10358,15030,6345
7751,1464,1241,1296,1487,6345,10358,15030,6345
8117,1462,1252,1300,1475,6345,10358,15030,6345
8117,1469,1258,1250,1485,6345,10358,15030,6345
7751,1459,1234,1295,1484,6345,10358,15030,6345
8117,1468,1255,1248,1477,6345,10358,15030,6345
8117,1469,1255,1300,1483,6345,10358,15030,6345
7751,1464,1233,1296,1485,6345,10358,15030,6345
8117,1463,1279,1274,1475,6345,10358,15030,6345
8117,1459,1236,1299,1486,6345,10358,15030,6345
7751,1469,1273,1297,1486,6345,10358,15030,6345
8117,1465,1232,1281,1475,6345,10358,15030,6345
8117,1469,1250,1296,1468,6345,10358,15030,6345
7751,1469,1239,1278,1486,6345,10358,15030,6345
8117,1470,1278,1289,1478,6345,10358,15030,6345
8117,1461,1258,1305,1472,6345,10358,15030,6345
7751,1466,1260,1272,1485,6345,10358,15030,6345
8117,1464,1241,1300,1478,6345,10358,15030,6345
8117,1469,1258,1263,1470,6345,10358,15030,6345
7751,1466,1255,1300,1491,6345,10358,15030,6345
8117,1465,1235,1302,1477,6345,10358,15030,6345
8117,1469,1260,1295,1472,6345,10358,15030,6345
8117,1469,1244,1298,1482,6345,10358,15030,6345
7720,1458,1286,1300,1484,6345,10358,15030,6345
8117,1464,1241,1284,1477,6345,10358,15030,6345
8117,1465,1249,1299,1484,6345,10358,15030,6345
7751,1471,1246,1285,1481,6345,10358,15030,6345
8117,1471,1286,1294,1475,6345,10358,15030,6345
8117,1466,1261,1309,1470,6345,10358,15030,6345
7751,1461,1281,1277,1490,6345,10358,15030,6345
8117,1462,1246,1303,1475,6345,10358,15030,6345
8117,1467,1268,1263,1474,6345,10358,15030,6345
7751,1471,1248,1299,1489,6345,10358,15030,6345
8117,1466,1238,1297,1479,6345,10358,15030,6345
8117,1462,1260,1299,1474,6345,10358,15030,6345
7751,1463,1241,1301,1488,6345,10358,15030,6345
8117,1460,1278,1296,1481,6345,10358,15030,6345
8117,1466,1262,1249,1472,6345,10358,15030,6345
8117,1464,1241,1299,1483,6345,10358,15030,6345
7720,1458,1243,1278,1487,6345,10358,15030,6345
8117,1463,1282,1299,1475,6345,10358,15030,6345
8117,1469,1261,1301,1488,6345,10358,15030,6345
7751,1461,1284,1277,1482,6345,10358,15030,6345
8117,1466,1244,1304,1474,6345,10358,15030,6345
8117,1469,1266,1264,1491,6345,10358,15030,6345
7751,1469,1250,1297,1482,6345,10358,15030,6345
8117,1462,1244,1300,1478,6345,10358,15030,6345
8117,1469,1266,1300,1470,6345,10358,15030,6345
7751,1467,1245,1294,1488,6345,10358,15030,6345
8117,1469,1286,1295,1478,6345,10358,15030,6345
8117,1466,1257,1251,1471,6345,10358,15030,6345
7751,1461,1241,1292,1489,6345,10358,15030,6345
8117,1465,1239,1270,1476,6345,10358,15030,6345
8117,1466,1253,1289,1471,6345,10358,15030,6345
8117,1466,1236,1289,1479,6345,10358,15030,6345
7751,1463,1272,1266,1478,6345,10358,15030,6345
8117,1469,1230,1293,1476,6345,10358,15030,6345
8117,1469,1256,1291,1482,6345,10358,15030,6345
7720,1466,1235,1288,1481,6345,10358,15030,6345
8117,1466,1239,1291,1472,6345,10358,15030,6345
8117,1467,1257,1300,1486,6345,10358,15030,6345
7751,1469,1255,1296,1485,6345,10358,15030,6345
8117,1466,1288,1301,1476,6345,10358,15030,6345
8117,1459,1261,1254,1471,6345,10358,15030,6345
7751,1466,1245,1304,1485,6345,10358,15030,6345
8117,1463,1244,1276,1481,6345,10358,15030,6345
8117,1467,1268,1300,1476,6345,10358,15030,6345
7751,1466,1243,1301,1489,6345,10358,15030,6345
8117,1463,1291,1282,1476,6345,10358,15030,6345
8117,1467,1246,1311,1475,6345,10358,15030,6345
7751,1471,1272,1306,1494,6345,10358,15030,6345
8117,1468,1246,1284,1479,6345,10358,15030,6345
8117,1469,1263,1311,1475,6345,10358,15030,6345
8117,1467,1271,1316,1484,6345,10358,15030,6345
7751,1465,1285,1295,1478,6345,10358,15030,6345
8117,1465,1273,1317,1476,6345,10358,15030,6345
8117,1469,1276,1272,1484,6345,10358,15030,6345
7720,1464,1255,1313,1483,6345,10358,15030,6345
8117,1468,1250,1288,1478,6345,10358,15030,6345
8117,1460,1277,1307,1469,6345,10358,15030,6345
7751,1466,1256,1310,1482,6345,10358,15030,6345
8117,1467,1293,1287,1476,6345,10358,15030,6345
8117,1468,1253,1314,1469,6345,10358,15030,6345
7751,1462,1277,1305,1483,6345,10358,15030,6345
8117,1460,1254,1281,1474,6345,10358,15030,6345
8117,1461,1262,1306,1473,6345,10358,15030,6345
7751,1462,1273,1305,1487,6345,10358,15030,6345
8117,1468,1290,1294,1479,6345,10358,15030,6345
8117,1467,1266,1308,1475,6345,10358,15030,6345
8117,1466,1271,1265,1477,6345,10358,15030,6345
7751,1460,1256,1315,1476,6345,10358,15030,6345
8117,1465,1277,1285,1470,6345,10358,15030,6345
8117,1463,1278,1318,1483,6345,10358,15030,6345
7751,1464,1256,1313,1477,6345,10358,15030,6345
8117,1467,1296,1310,1472,6345,10358,15030,6345
8117,1466,1266,1306,1488,6345,10358,15030,6345
7751,1469,1300,1310,1487,6345,10358,15030,6345
8117,1468,1255,1288,1472,6345,10358,15030,6345
8117,1469,1257,1305,1493,6345,10358,15030,6345
7720,1464,1273,1279,1487,6345,10358,15030,6345
8117,1463,1286,1287,1477,6345,10358,15030,6345
8117,1462,1263,1306,1475,6345,10358,15030,6345
7751,1467,1271,1263,1490,6345,10358,15030,6345
8117,1464,1253,1307,1480,6345,10358,15030,6345
8117,1471,1276,1278,1474,6345,10358,15030,6345
8117,1469,1270,1307,1483,6345,10358,15030,6345
7751,1465,1247,1308,1481,6345,10358,15030,6345
8117,1463,1275,1314,1472,6345,10358,15030,6345
8117,1465,1260,1307,1485,6345,10358,15030,6345
7751,1467,1300,1306,1484,6345,10358,15030,6345
8117,1464,1255,1264,1475,6345,10358,15030,6345
8117,1463,1259,1308,1487,6345,10358,15030,6345
7751,1466,1252,1283,1481,6345,10358,15030,6345
8117,1467,1294,1282,1476,6345,10358,15030,6345
8117,1463,1254,1304,1485,6345,10358,15030,6345
7751,1462,1290,1283,1478,6345,10358,15030,6345
8117,1466,1254,1308,1475,6345,10358,15030,6345
8117,1461,1276,1311,1474,6345,10358,15030,6345
7720,1466,1276,1310,1484,6345,10358,15030,6345
8117,1463,1255,1314,1481,6345,10358,15030,6345
8117,1464,1276,1307,1471,6345,10358,15030,6345
8117,1464,1262,1310,1482,6345,10358,15030,6345
7751,1464,1298,1317,1483,6345,10358,15030,6345
8117,1466,1276,1268,1473,6345,10358,15030,6345
8117,1462,1261,1312,1482,6345,10358,15030,6345
7751,1460,1256,1288,1485,6345,10358,15030,6345
8117,1465,1299,1311,1480,6345,10358,15030,6345
8117,1467,1259,1312,1493,6345,10358,15030,6345
7751,1473,1304,1286,1487,6345,10358,15030,6345
8117,1467,1255,1309,1479,6345,10358,15030,6345
8117,1466,1278,1311,1489,6345,10358,15030,6345
7751,1466,1261,1280,1484,6345,10358,15030,6345
8117,1467,1257,1310,1475,6345,10358,15030,6345
8117,1467,1282,1303,1469,6345,10358,15030,6345
7751,1467,1298,1285,1487,6345,10358,15030,6345
8117,1463,1281,1305,1477,6345,10358,15030,6345
8117,1463,1280,1255,1476,6345,10358,15030,6345
8087,1466,1261,1300,1482,6345,10358,15030,6345
7751,1466,1254,1278,1481,6345,10358,15030,6345
8117,1467,1273,1296,1475,6345,10358,15030,6345
8117,1466,1257,1299,1485,6345,10358,15030,6345
7751,1469,1304,1279,1479,6345,10358,15030,6345
8117,1471,1258,1303,1479,6345,10358,15030,6345
8117,1461,1279,1295,1487,6345,10358,15030,6345
7751,1467,1255,1275,1478,6345,10358,15030,6345
8117,1464,1256,1299,1470,6345,10358,15030,6345
8117,1467,1279,1290,1486,6345,10358,15030,6345
7751,1469,1293,1274,1485,6345,10358,15030,6345
8117,1464,1264,1294,1475,6345,10358,15030,6345
8117,1467,1273,1248,1468,6345,10358,15030,6345
7751,1469,1258,1296,1482,6345,10358,15030,6345
8117,1468,1249,1286,1475,6345,10358,15030,6345
8117,1460,1277,1295,1474,6345,10358,15030,6345
7751,1461,1258,1296,1487,6345,10358,15030,6345
8117,1461,1307,1276,1476,6345,10358,15030,6345
8117,1464,1269,1289,1471,6345,10358,15030,6345
8087,1461,1278,1294,1481,6345,10358,15030,6345
7751,1467,1254,1272,1483,6345,10358,15030,6345
8117,1467,1254,1293,1478,6345,10358,15030,6345
8117,1471,1274,1285,1489,6345,10358,15030,6345
7751,1464,1291,1261,1484,6345,10358,15030,6345
8117,1468,1264,1284,1474,6345,10358,15030,6345
8117,1465,1267,1235,1492,6345,10358,15030,6345
7751,1462,1251,1284,1483,6345,10358,15030,6345
8117,1463,1251,1273,1475,6345,10358,15030,6345
8117,1460,1274,1284,1472,6345,10358,15030,6345
7751,1464,1251,1284,1484,6345,10358,15030,6345
8117,1462,1297,1265,1477,6345,10358,15030,6345
8117,1462,1267,1276,1471,6345,10358,15030,6345
7751,1461,1272,1274,1484,6345,10358,15030,6345
8117,1469,1262,1254,1479,6345,10358,15030,6345
8117,1466,1257,1272,1474,6345,10358,15030,6345
7751,1467,1269,1273,1488,6345,10358,15030,6345
8117,1461,1284,1250,1479,6345,10358,15030,6345
8117,1464,1252,1276,1479,6345,10358,15030,6345
8117,1466,1272,1230,1485,6345,10358,15030,6345
7751,1466,1255,1272,1475,6345,10358,15030,6345
8117,1467,1276,1272,1473,6345,10358,15030,6345
8087,1461,1277,1276,1486,6345,10358,15030,6345
7751,1461,1253,1270,1485,6345,10358,15030,6345
8117,1460,1294,1253,1473,6345,10358,15030,6345
8117,1465,1261,1258,1469,6345,10358,15030,6345
7751,1469,1290,1264,1481,6345,10358,15030,6345
8117,1464,1244,1239,1475,6345,10358,15030,6345
8117,1469,1255,1262,1470,6345,10358,15030,6345
7751,1467,1249,1241,1484,6345,10358,15030,6345
8117,1465,1285,1242,1473,6345,10358,15030,6345
8117,1470,1255,1260,1467,6345,10358,15030,6345
7751,1467,1270,1225,1483,6345,10358,15030,6345
8117,1463,1250,1262,1479,6345,10358,15030,6345
8117,1467,1271,1260,1472,6345,10358,15030,6345
8117,1464,1270,1256,1486,6345,10358,15030,6345
7751,1466,1251,1260,1482,6345,10358,15030,6345
8117,1464,1265,1249,1475,6345,10358,15030,6345
8117,1457,1272,1217,1488,6345,10358,15030,6345
7751,1466,1253,1251,1484,6345,10358,15030,6345
8117,1467,1266,1211,1473,6345,10358,15030,6345
8087,1460,1258,1258,1488,6345,10358,15030,6345
7751,1467,1248,1237,1490,6345,10358,15030,6345
8117,1466,1286,1236,1477,6345,10358,15030,6345
8117,1466,1251,1262,1474,6345,10358,15030,6345
7751,1469,1295,1234,1487,6345,10358,15030,6345
8117,1466,1255,1261,1477,6345,10358,15030,6345
8117,1469,1275,1253,1474,6345,10358,15030,6345
7751,1470,1272,1232,1486,6345,10358,15030,6345
8117,1467,1249,1258,1480,6345,10358,15030,6345
8117,1464,1272,1253,1473,6345,10358,15030,6345
8117,1463,1270,1208,1483,6345,10358,15030,6345
7751,1462,1258,1254,1475,6345,10358,15030,6345
8117,1463,1272,1201,1474,6345,10358,15030,6345
8117,1466,1272,1258,1484,6345,10358,15030,6345
7751,1473,1250,1247,1479,6345,10358,15030,6345
8117,1467,1270,1251,1469,6345,10358,15030,6345
8117,1465,1247,1249,1484,6345,10358,15030,6345
7751,1473,1297,1233,1481,6345,10358,15030,6345
8117,1463,1245,1237,1478,6345,10358,15030,6345
8087,1470,1264,1236,1469,6345,10358,15030,6345
7751,1466,1251,1221,1485,6345,10358,15030,6345
8117,1468,1249,1244,1480,6345,10358,15030,6345
8117,1458,1266,1248,1468,6345,10358,15030,6345
7751,1466,1268,1220,1480,6345,10358,15030,6345
8117,1463,1242,1244,1478,6345,10358,15030,6345
8117,1466,1264,1199,1472,6345,10358,15030,6345
7751,1461,1265,1240,1496,6345,10358,15030,6345
8117,1466,1251,1246,1483,6345,10358,15030,6345
8117,1467,1268,1248,1478,6345,10358,15030,6345
8117,1469,1243,1258,1489,6345,10358,15030,6345
7751,1463,1281,1241,1483,6345,10358,15030,6345
8117,1471,1263,1234,1476,6345,10358,15030,6345
8117,1464,1265,1246,1487,6345,10358,15030,6345
7751,1461,1244,1223,1483,6345,10358,15030,6345
8117,1469,1258,1248,1476,6345,10358,15030,6345
8117,1465,1267,1253,1487,6345,10358,15030,6345
7751,1468,1288,1229,1482,6345,10358,15030,6345
8117,1465,1244,1248,1475,6345,10358,15030,6345
8117,1469,1265,1204,1486,6345,10358,15030,6345
7751,1462,1248,1251,1484,6345,10358,15030,6345
8117,1466,1248,1248,1476,6345,10358,15030,6345
8087,1466,1269,1248,1471,6345,10358,15030,6345
7751,1460,1243,1248,1487,6345,10358,15030,6345
8117,1462,1293,1244,1480,6345,10358,15030,6345
8117,1464,1264,1230,1474,6345,10358,15030,6345
8117,1461,1267,1247,1483,6345,10358,15030,6345
7751,1468,1245,1222,1479,6345,10358,15030,6345
8117,1466,1257,1249,1473,6345,10358,15030,6345
8117,1469,1271,1255,1484,6345,10358,15030,6345
7751,1462,1284,1227,1480,6345,10358,15030,6345
8117,1467,1256,1253,1473,6345,10358,15030,6345
8117,1465,1268,1202,1483,6345,10358,15030,6345
7751,1467,1243,1246,1480,6345,10358,15030,6345
8117,1463,1247,1244,1478,6345,10358,15030,6345
8117,1470,1269,1244,1487,6345,10358,15030,6345
7751,1466,1248,1244,1478,6345,10358,15030,6345
8117,1469,1289,1241,1476,6345,10358,15030,6345
8117,1462,1265,1201,1472,6345,10358,15030,6345
7751,1464,1254,1242,1489,6345,10358,15030,6345
8117,1460,1244,1223,1480,6345,10358,15030,6345
8087,1465,1255,1243,1474,6345,10358,15030,6345
8117,1460,1269,1247,1488,6345,10358,15030,6345
7751,1471,1293,1217,1483,6345,10358,15030,6345
8117,1469,1246,1242,1474,6345,10358,15030,6345
8117,1463,1267,1197,1484,6345,10358,15030,6345
7751,1470,1250,1240,1481,6345,10358,15030,6345
8117,1465,1244,1244,1476,6345,10358,15030,6345
8117,1464,1265,1244,1488,6345,10358,15030,6345
7751,1459,1248,1239,1479,6345,10358,15030,6345
8117,1461,1288,1239,1476,6345,10358,15030,6345
8117,1466,1263,1189,1486,6345,10358,15030,6345
7751,1469,1249,1239,1480,6345,10358,15030,6345
8117,1466,1253,1219,1474,6345,10358,15030,6345
7843,1469,1266,1246,1486,6345,10330,14983,6345
8117,1466,1227,1192,1480,6345,10330,14983,6345
8087,1457,1248,1191,1473,6345,10330,14983,6345
8117,1473,1242,1177,1485,6345,10330,14983,6345
7751,1468,1263,1195,1477,6345,10330,14983,6345
8117,1465,1230,1147,1478,6345,10330,14983,6345
8117,1466,1231,1189,1482,6345,10330,14983,6345
7751,1469,1228,1168,1478,6345,10330,14983,6345
8117,1465,1266,1166,1475,6345,10330,14983,6345
8117,1466,1218,1185,1489,6345,10330,14983,6345
7751,1466,1257,1159,1482,6345,10330,14983,6345
8117,1465,1218,1184,1470,6345,10330,14983,6345
8117,1471,1236,1187,1476,6345,10330,14983,6345
7751,1469,1225,1160,1483,6345,10330,14983,6345
8117,1472,1219,1188,1474,6345,10330,14983,6345
8117,1466,1238,1186,1472,6345,10330,14983,6345
7751,1464,1240,1167,1492,6345,10330,14983,6345
8117,1462,1215,1189,1481,6345,10330,14983,6345
8087,1469,1239,1146,1475,6345,10330,14983,6345
8117,1464,1223,1183,1486,6345,10330,14983,6345
7751,1460,1219,1166,1486,6345,10330,14983,6345
8117,1467,1256,1186,1475,6345,10330,14983,6345
8117,1466,1216,1188,1488,6345,10330,14983,6345
7751,1465,1256,1162,1485,6345,10330,14983,6345
8117,1463,1218,1188,1480,6345,10330,14983,6345
8117,1466,1239,1190,1488,6345,10330,14983,6345
7751,1464,1219,1169,1487,6345,10330,14983,6345
8117,1462,1218,1192,1478,6345,10330,14983,6345
8117,1464,1239,1195,1474,6345,10330,14983,6345
7751,1467,1256,1167,1484,6345,10330,14983,6345
8117,1466,1222,1190,1477,6345,10330,14983,6345
8117,1466,1238,1151,1473,6345,10330,14983,6345
7751,1465,1237,1195,1487,6345,10330,14983,6345
8117,1464,1221,1201,1481,6345,10330,14983,6345
8117,1466,1242,1204,1474,6345,10330,14983,6345
7751,1469,1222,1206,1490,6345,10330,14983,6345
8117,1466,1269,1195,1482,6345,10330,14983,6345
8117,1464,1244,1184,1475,6345,10330,14983,6345
8117,1467,1240,1208,1482,6345,10330,14983,6345
7751,1470,1225,1181,1475,6345,10330,14983,6345
8087,1465,1219,1195,1472,6345,10330,14983,6345
8117,1462,1246,1197,1486,6345,10330,14983,6345
7751,1459,1270,1180,1482,6345,10330,14983,6345
8117,1460,1226,1202,1476,6345,10330,14983,6345
8117,1464,1243,1148,1470,6345,10330,14983,6345
7751,1469,1226,1201,1488,6345,10330,14983,6345
8117,1464,1225,1201,1473,6345,10330,14983,6345
8117,1467,1243,1197,1474,6345,10330,14983,6345
7751,1461,1221,1199,1491,6345,10330,14983,6345
8117,1466,1267,1200,1478,6345,10330,14983,6345
8117,1471,1245,1179,1470,6345,10330,14983,6345
7751,1466,1240,1204,1493,6345,10330,14983,6345
8117,1465,1228,1186,1481,6345,10330,14983,6345
8117,1466,1238,1205,1471,6345,10330,14983,6345
8117,1465,1245,1207,1486,6345,10330,14983,6345
7751,1466,1268,1179,1485,6345,10330,14983,6345
8117,1468,1226,1211,1475,6345,10330,14983,6345
8117,1466,1242,1160,1485,6345,10330,14983,6345
7751,1469,1237,1207,1481,6345,10330,14983,6345
8087,1463,1220,1199,1483,6345,10330,14983,6345
8117,1467,1246,1203,1470,6345,10330,14983,6345
7751,1469,1219,1203,1486,6345,10330,14983,6345
8117,1467,1262,1193,1477,6345,10330,14983,6345
8117,1467,1241,1177,1474,6345,10330,14983,6345
7751,1468,1240,1200,1488,6345,10330,14983,6345
8117,1462,1225,1179,1479,6345,10330,14983,6345
8117,1465,1232,1197,1473,6345,10330,14983,6345
7751,1461,1237,1204,1489,6345,10330,14983,6345
8117,1466,1262,1179,1477,6345,10330,14983,6345
8117,1462,1220,1197,1471,6345,10330,14983,6345
8117,1463,1243,1163,1480,6345,10330,14983,6345
7751,1466,1224,1204,1477,6345,10330,14983,6345
8117,1464,1244,1202,1474,6345,10330,14983,6345
8117,1467,1241,1202,1481,6345,10330,14983,6345
7751,1466,1221,1209,1480,6345,10330,14983,6345
8117,1464,1262,1204,1477,6345,10330,14983,6345
8117,1460,1240,1167,1484,6345,10330,14983,6345
7751,1460,1230,1211,1481,6345,10330,14983,6345
8087,1464,1225,1187,1477,6345,10330,14983,6345
8117,1466,1237,1214,1474,6345,10330,14983,6345
7751,1469,1244,1193,1493,6345,10330,14983,6345
8117,1466,1262,1190,1481,6345,10330,14983,6345
8117,1469,1221,1208,1470,6345,10330,14983,6345
7751,1467,1238,1168,1490,6345,10330,14983,6345
8117,1465,1214,1207,1479,6345,10330,14983,6345
8117,1467,1242,1207,1476,6345,10330,14983,6345
8117,1466,1241,1214,1484,6345,10330,14983,6345
7751,1469,1230,1218,1485,6345,10330,14983,6345
8117,1465,1243,1216,1474,6345,10330,14983,6345
8117,1461,1246,1172,1486,6345,10330,14983,6345
7751,1459,1226,1221,1483,6345,10330,14983,6345
8117,1464,1221,1174,1474,6345,10330,14983,6345
8117,1460,1247,1219,1489,6345,10330,14983,6345
7751,1463,1232,1220,1485,6345,10330,14983,6345
8117,1467,1273,1198,1477,6345,10330,14983,6345
8117,1469,1228,1217,1490,6345,10330,14983,6345
7751,1468,1276,1219,1484,6345,10330,14983,6345
8117,1467,1228,1203,1476,6345,10330,14983,6345
8117,1461,1243,1219,1476,6345,10330,14983,6345
7751,1458,1227,1193,1486,6345,10330,14983,6345
8087,1462,1229,1217,1477,6345,10330,14983,6345
8117,1467,1252,1223,1474,6345,10330,14983,6345
8117,1469,1245,1175,1483,6345,10330,14983,6345
7751,1466,1230,1221,1480,6345,10330,14983,6345
8117,1469,1249,1168,1475,6345,10330,14983,6345
8117,1467,1246,1219,1482,6345,10330,14983,6345
7751,1464,1233,1223,1479,6345,10330,14983,6345
8117,1464,1272,1219,1481,6345,10330,14983,6345
8117,1469,1233,1223,1486,6345,10330,14983,6345
7751,1459,1271,1223,1480,6345,10330,14983,6345
8117,1466,1241,1204,1470,6345,10330,14983,6345
8117,1469,1244,1221,1492,6345,10330,14983,6345
7751,1469,1235,1203,1487,6345,10330,14983,6345
8117,1469,1271,1214,1480,6345,10330,14983,6345
8117,1466,1255,1215,1472,6345,10330,14983,6345
7751,1466,1277,1195,1488,6345,10330,14983,6345
8117,1468,1231,1217,1483,6345,10330,14983,6345
8117,1467,1252,1177,1472,6345,10330,14983,6345
7751,1469,1245,1213,1491,6345,10330,14983,6345
8087,1468,1228,1219,1481,6345,10330,14983,6345
8117,1461,1245,1216,1474,6345,10330,14983,6345
8117,1469,1233,1220,1486,6345,10330,14983,6345
7751,1473,1270,1218,1484,6345,10330,14983,6345
8117,1467,1254,1191,1474,6345,10330,14983,6345
8117,1466,1242,1219,1492,6345,10330,14983,6345
7751,1464,1234,1202,1479,6345,10330,14983,6345
8117,1465,1272,1212,1478,6345,10330,14983,6345
8117,1466,1251,1230,1487,6345,10330,14983,6345
7751,1470,1272,1206,1485,6345,10330,14983,6345
8117,1467,1231,1222,1472,6345,10330,14983,6345
8117,1466,1250,1191,1476,6345,10330,14983,6345
7751,1468,1237,1213,1485,6345,10330,14983,6345
8117,1461,1233,1217,1476,6345,10330,14983,6345
8117,1469,1248,1208,1473,6345,10330,14983,6345
7751,1464,1232,1213,1486,6345,10330,14983,6345
8117,1466,1264,1219,1476,6345,10330,14983,6345
8117,1466,1249,1174,1471,6345,10330,14983,6345
7751,1461,1227,1216,1489,6345,10330,14983,6345
8087,1470,1221,1195,1479,6345,10330,14983,6345
8117,1465,1242,1208,1475,6345,10330,14983,6345
8117,1464,1238,1217,1485,6345,10330,14983,6345
7751,1466,1260,1188,1480,6345,10330,14983,6345
8117,1463,1219,1215,1473,6345,10330,14983,6345
8117,1461,1242,1176,1491,6345,10330,14983,6345
7751,1461,1221,1211,1489,6345,10330,14983,6345
8117,1467,1219,1212,1480,6345,10330,14983,6345
8117,1466,1233,1212,1471,6345,10330,14983,6345
7751,1466,1220,1210,1491,6345,10330,14983,6345
8117,1468,1267,1213,1478,6345,10330,14983,6345
8117,1467,1240,1165,1472,6345,10330,14983,6345
7751,1462,1215,1211,1488,6345,10330,14983,6345
8117,1462,1215,1187,1478,6345,10330,14983,6345
8117,1464,1230,1206,1476,6345,10330,14983,6345
7751,1464,1208,1202,1492,6345,10330,14983,6345
8117,1467,1256,1179,1480,6345,10330,14983,6345
8117,1462,1212,1202,1474,6345,10330,14983,6345
8117,1469,1228,1200,1484,6345,10330,14983,6345
7751,1464,1208,1181,1480,6345,10330,14983,6345
8117,1467,1220,1205,1475,6345,10330,14983,6345
8117,1466,1233,1204,1485,6345,10330,14983,6345
7751,1467,1253,1195,1479,6345,10330,14983,6345
8117,1465,1230,1208,1476,6345,10330,14983,6345
8117,1469,1236,1170,1490,6345,10330,14983,6345
7751,1471,1216,1214,1483,6345,10330,14983,6345
8117,1470,1216,1206,1474,6345,10330,14983,6345
8117,1467,1237,1221,1484,6345,10330,14983,6345
7751,1473,1221,1225,1482,6345,10330,14983,6345
8117,1465,1267,1211,1475,6345,10330,14983,6345
8117,1473,1228,1228,1473,6345,10330,14983,6345
7751,1469,1272,1231,1481,6345,10330,14983,6345
8117,1467,1226,1207,1475,6345,10330,14983,6345
8117,1468,1239,1244,1477,6345,10330,14983,6345
7751,1464,1233,1209,1486,6345,10330,14983,6345
8117,1462,1266,1219,1479,6345,10330,14983,6345
8117,1467,1234,1243,1474,6345,10330,14983,6345
7751,1466,1253,1189,1496,6345,10330,14983,6345
8117,1470,1233,1238,1477,6345,10330,14983,6345
8117,1471,1254,1235,1477,6345,10330,14983,6345
8117,1466,1251,1238,1486,6345,10330,14983,6345
7751,1469,1237,1239,1482,6345,10330,14983,6345
8117,1460,1254,1240,1473,6345,10330,14983,6345
8117,1467,1252,1198,1486,6345,10330,14983,6345
7751,1464,1255,1237,1480,6345,10330,14983,6345
8117,1463,1254,1195,1476,6345,10330,14983,6345
8117,1467,1252,1241,1487,6345,10330,14983,6345
7751,1467,1226,1223,1483,6345,10330,14983,6345
8117,1462,1270,1213,1475,6345,10330,14983,6345
8117,1460,1235,1239,1489,6345,10330,14983,6345
7751,1464,1276,1231,1484,6345,10330,14983,6345
8117,1465,1233,1244,1478,6345,10330,14983,6345
8117,1466,1250,1246,1470,6345,10330,14983,6345
7751,1473,1233,1222,1489,6345,10330,14983,6345
8117,1471,1241,1246,1475,6345,10330,14983,6345
8117,1469,1261,1249,1468,6345,10330,14983,6345
7751,1466,1277,1219,1488,6345,10330,14983,6345
8117,1464,1233,1241,1477,6345,10330,14983,6345
8117,1469,1255,1194,1470,6345,10330,14983,6345
7751,1468,1253,1240,1487,6345,10330,14983,6345
8117,1466,1236,1234,1479,6345,10330,14983,6345
8117,1463,1251,1236,1476,6345,10330,14983,6345
8117,1468,1229,1239,1482,6345,10330,14983,6345
7751,1464,1279,1240,1476,6345,10330,14983,6345
8117,1471,1253,1195,1472,6345,10330,14983,6345
8117,1466,1247,1248,1483,6345,10330,14983,6345
7751,1466,1234,1222,1480,6345,10330,14983,6345
8117,1466,1258,1244,1471,6345,10330,14983,6345
8117,1469,1248,1241,1482,6345,10330,14983,6345
7751,1469,1276,1218,1480,6345,10330,14983,6345
8117,1464,1233,1243,1476,6345,10330,14983,6345
8117,1469,1255,1220,1490,6345,10330,14983,6345
7751,1467,1232,1239,1487,6345,10330,14983,6345
8117,1462,1235,1238,1480,6345,10330,14983,6345
8117,1471,1252,1242,1473,6345,10330,14983,6345
7751,1464,1248,1239,1486,6345,10330,14983,6345
8117,1468,1274,1239,1480,6345,10330,14983,6345
8117,1466,1258,1197,1473,6345,10330,14983,6345
7751,1466,1233,1242,1487,6345,10330,14983,6345
8117,1466,1233,1220,1475,6345,10330,14983,6345
8117,1469,1253,1251,1473,6345,10330,14983,6345
7751,1469,1237,1251,1491,6345,10330,14983,6345
8117,1471,1279,1227,1479,6345,10330,14983,6345
8117,1469,1244,1255,1483,6345,10330,14983,6345
8117,1470,1261,1253,1485,6345,10330,14983,6345
7751,1463,1248,1227,1482,6345,10330,14983,6345
8117,1464,1248,1251,1473,6345,10330,14983,6345
8117,1459,1267,1249,1484,6345,10330,14983,6345
7751,1469,1284,1226,1482,6345,10330,14983,6345
8117,1468,1255,1253,1472,6345,10330,14983,6345
8117,1469,1265,1203,1487,6345,10330,14983,6345
7751,1473,1250,1249,1482,6345,10330,14983,6345
8117,1468,1246,1239,1477,6345,10330,14983,6345
8117,1463,1269,1250,1488,6345,10330,14983,6345
7751,1466,1243,1247,1481,6345,10330,14983,6345
8117,1468,1284,1236,1474,6345,10330,14983,6345
8117,1467,1250,1247,1470,6345,10330,14983,6345
7751,1473,1291,1250,1480,6345,10330,14983,6345
8117,1466,1241,1228,1475,6345,10330,14983,6345
8117,1466,1252,1251,1473,6345,10330,14983,6345
7751,1466,1267,1226,1485,6345,10330,14983,6345
8117,1471,1289,1226,1478,6345,10330,14983,6345
8117,1460,1248,1249,1474,6345,10330,14983,6345
7751,1458,1270,1204,1492,6345,10330,14983,6345
8117,1463,1248,1251,1480,6345,10330,14983,6345
8117,1469,1270,1248,1473,6345,10330,14983,6345
8117,1467,1274,1240,1487,6345,10330,14983,6345
7751,1469,1246,1244,1483,6345,10330,14983,6345
8117,1469,1269,1248,1474,6345,10330,14983,6345
8117,1478,1267,1206,1487,6345,10330,14983,6345
7751,1469,1251,1247,1481,6345,10330,14983,6345
8117,1468,1251,1200,1477,6345,10330,14983,6345
8117,1469,1268,1242,1489,6345,10330,14983,6345
7751,1469,1257,1240,1483,6345,10330,14983,6345
8117,1467,1293,1218,1474,6345,10330,14983,6345
8117,1469,1250,1243,1491,6345,10330,14983,6345
7751,1470,1293,1235,1485,6345,10330,14983,6345
8117,1468,1251,1242,1478,6345,10330,14983,6345
8117,1469,1272,1252,1471,6345,10330,14983,6345
7751,1473,1251,1221,1487,6345,10330,14983,6345
8117,1463,1259,1243,1476,6345,10330,14983,6345
8117,1472,1268,1245,1480,6345,10330,14983,6345
7751,1464,1268,1221,1488,6345,10330,14983,6345
8117,1467,1251,1246,1479,6345,10330,14983,6345
8117,1464,1273,1197,1474,6345,10330,14983,6345
7751,1464,1276,1242,1482,6345,10330,14983,6345
8117,1463,1253,1244,1479,6345,10330,14983,6345
8117,1461,1276,1243,1473,6345,10330,14983,6345
8117,1463,1253,1242,1483,6345,10330,14983,6345
7751,1466,1300,1235,1475,6345,10330,14983,6345
8117,1459,1277,1196,1472,6345,10330,14983,6345
8117,1469,1250,1230,1480,6345,10330,14983,6345
7751,1468,1253,1213,1481,6345,10330,14983,6345
8117,1466,1284,1233,1475,6345,10330,14983,6345
8117,1466,1256,1235,1492,6345,10330,14983,6345
7751,1471,1287,1211,1483,6345,10330,14983,6345
8117,1465,1255,1236,1481,6345,10330,14983,6345
8117,1469,1267,1218,1491,6345,10330,14983,6345
7751,1469,1247,1227,1486,6345,10330,14983,6345
8117,1466,1255,1235,1476,6345,10330,14983,6345
8117,1467,1276,1234,1469,6345,10330,14983,6345
7751,1469,1261,1229,1488,6345,10330,14983,6345
8117,1466,1286,1232,1482,6345,10330,14983,6345
8117,1469,1271,1190,1473,6345,10330,14983,6345
7751,1466,1261,1226,1488,6345,10330,14983,6345
8117,1470,1250,1208,1479,6345,10330,14983,6345
8117,1466,1268,1230,1473,6345,10330,14983,6345
7751,1466,1251,1222,1488,6345,10330,14983,6345
8117,1466,1293,1206,1479,6345,10330,14983,6345
8117,1469,1251,1237,1477,6345,10330,14983,6345
8117,1467,1267,1224,1482,6345,10330,14983,6345
7751,1466,1254,1205,1480,6345,10330,14983,6345
8117,1464,1246,1223,1476,6345,10330,14983,6345
8117,1468,1271,1225,1485,6345,10330,14983,6345
7751,1464,1285,1204,1478,6345,10330,14983,6345
8117,1466,1253,1229,1473,6345,10330,14983,6345
8117,1469,1263,1183,1485,6345,10330,14983,6345
7751,1469,1253,1225,1475,6345,10330,14983,6345
8117,1466,1247,1225,1475,6345,10330,14983,6345
8117,1471,1267,1230,1486,6345,10330,14983,6345
7751,1464,1246,1229,1480,6345,10330,14983,6345
8117,1465,1288,1221,1474,6345,10330,14983,6345
8117,1467,1256,1212,1472,6345,10330,14983,6345
7751,1473,1288,1221,1482,6345,10330,14983,6345
8117,1470,1253,1201,1476,6345,10330,14983,6345
8117,1469,1252,1218,1470,6345,10330,14983,6345
7751,1469,1263,1202,1491,6345,10330,14983,6345
8117,1469,1290,1203,1477,6345,10330,14983,6345
8117,1462,1248,1225,1472,6345,10330,14983,6345
7751,1469,1269,1184,1497,6345,10330,14983,6345
8117,1467,1248,1229,1478,6345,10330,14983,6345
8117,1461,1270,1225,1476,6345,10330,14983,6345
8117,1463,1270,1232,1484,6345,10330,14983,6345
7751,1470,1249,1224,1482,6345,10330,14983,6345
8117,1468,1275,1226,1473,6345,10330,14983,6345
8117,1466,1266,1182,1487,6345,10330,14983,6345
7751,1462,1249,1222,1484,6345,10330,14983,6345
8117,1466,1253,1175,1472,6345,10330,14983,6345
8117,1464,1270,1223,1489,6345,10330,14983,6345
7751,1470,1246,1216,1486,6345,10330,14983,6345
8117,1467,1282,1193,1474,6345,10330,14983,6345
8117,1464,1246,1220,1490,6345,10330,14983,6345
7751,1467,1286,1206,1486,6345,10330,14983,6345
8117,1465,1242,1209,1472,6345,10330,14983,6345
8117,1466,1261,1210,1470,6345,10330,14983,6345
7751,1469,1235,1193,1485,6345,10330,14983,6345
8117,1468,1257,1216,1476,6345,10330,14983,6345
8117,1469,1268,1216,1472,6345,10330,14983,6345
7751,1461,1264,1191,1487,6345,10330,14983,6345
8117,1466,1245,1217,1476,6345,10330,14983,6345
8117,1464,1263,1158,1467,6345,10330,14983,6345
7751,1463,1258,1209,1488,6345,10330,14983,6345
8117,1464,1233,1206,1479,6345,10330,14983,6345
8117,1460,1260,1206,1472,6345,10330,14983,6345
8117,1466,1236,1206,1480,6345,10330,14983,6345
7751,1468,1280,1206,1480,6345,10330,14983,6345
8117,1467,1258,1168,1472,6345,10330,14983,6345
8117,1466,1237,1212,1487,6345,10330,14983,6345
7751,1466,1239,1192,1484,6345,10330,14983,6345
8117,1465,1277,1216,1473,6345,10330,14983,6345
8117,1466,1238,1211,1489,6345,10330,14983,6345
7751,1471,1290,1191,1483,6345,10330,14983,6345
8117,1466,1235,1217,1471,6345,10330,14983,6345
8117,1466,1259,1197,1489,6345,10330,14983,6345
7751,1471,1238,1197,1486,6345,10330,14983,6345
8117,1465,1237,1213,1477,6345,10330,14983,6345
8117,1466,1263,1212,1475,6345,10330,14983,6345
7751,1470,1257,1208,1487,6345,10330,14983,6345
8117,1468,1284,1216,1477,6345,10330,14983,6345
8117,1467,1260,1168,1474,6345,10330,14983,6345
7751,1461,1248,1212,1486,6345,10330,14983,6345
8117,1469,1245,1191,1478,6345,10330,14983,6345
8117,1464,1262,1212,1473,6345,10330,14983,6345
7751,1469,1242,1211,1486,6345,10330,14983,6345
8117,1466,1288,1188,1478,6345,10330,14983,6345
8117,1467,1238,1204,1475,6345,10330,14983,6345
8117,1474,1262,1204,1483,6345,10330,14983,6345
7751,1462,1236,1184,1476,6345,10330,14983,6345
8117,1466,1237,1204,1472,6345,10330,14983,6345
8117,1464,1261,1205,1483,6345,10330,14983,6345
7751,1466,1275,1181,1476,6345,10330,14983,6345
8117,1462,1241,1207,1474,6345,10330,14983,6345
8117,1466,1256,1154,1484,6345,10330,14983,6345
7751,1462,1246,1203,1474,6345,10330,14983,6345
8117,1463,1241,1203,1475,6345,10330,14983,6345
8117,1469,1257,1199,1485,6345,10330,14983,6345
7751,1461,1233,1201,1484,6345,10330,14983,6345
8117,1466,1283,1196,1471,6345,10330,14983,6345
8117,1465,1257,1188,1468,6345,10330,14983,6345
7751,1471,1270,1202,1490,6345,10330,14983,6345
8117,1467,1240,1177,1479,6345,10330,14983,6345
8117,1467,1247,1205,1470,6345,10330,14983,6345
7751,1460,1260,1184,1492,6345,10330,14983,6345
8117,1471,1271,1177,1477,6345,10330,14983,6345
8117,1469,1237,1198,1467,6345,10330,14983,6345
7751,1461,1256,1156,1494,6345,10330,14983,6345
8117,1466,1237,1200,1479,6345,10330,14983,6345
8209,1466,1259,1197,1483,6345,10316,15002,6345
7751,1466,1219,1204,1482,6345,10316,15002,6345
8117,1465,1260,1215,1474,6345,10316,15002,6345
8117,1462,1212,1219,1488,6345,10316,15002,6345
7751,1466,1250,1194,1486,6345,10316,15002,6345
8117,1467,1208,1223,1475,6345,10316,15002,6345
8117,1469,1232,1218,1473,6345,10316,15002,6345
7751,1469,1212,1197,1487,6345,10316,15002,6345
8117,1466,1207,1220,1477,6345,10316,15002,6345
8117,1465,1231,1220,1473,6345,10316,15002,6345
7751,1470,1255,1203,1484,6345,10316,15002,6345
8117,1466,1217,1221,1477,6345,10316,15002,6345
8117,1467,1237,1171,1473,6345,10316,15002,6345
7751,1466,1231,1224,1488,6345,10316,15002,6345
8117,1471,1207,1220,1477,6345,10316,15002,6345
8117,1466,1227,1218,1476,6345,10316,15002,6345
8117,1469,1209,1225,1484,6345,10316,15002,6345
7751,1468,1251,1211,1481,6345,10316,15002,6345
8117,1470,1229,1200,1472,6345,10316,15002,6345
8117,1469,1228,1216,1485,6345,10316,15002,6345
7751,1467,1215,1195,1478,6345,10316,15002,6345
8117,1467,1223,1221,1475,6345,10316,15002,6345
8117,1466,1230,1216,1482,6345,10316,15002,6345
7751,1466,1248,1190,1479,6345,10316,15002,6345
8117,1467,1215,1216,1480,6345,10316,15002,6345
8117,1466,1230,1163,1490,6345,10316,15002,6345
7751,1466,1208,1208,1486,6345,10316,15002,6345
8117,1472,1206,1207,1480,6345,10316,15002,6345
8117,1464,1232,1209,1472,6345,10316,15002,6345
7751,1467,1206,1215,1487,6345,10316,15002,6345
8117,1468,1250,1212,1480,6345,10316,15002,6345
8117,1465,1232,1172,1473,6345,10316,15002,6345
7751,1469,1216,1213,1493,6345,10316,15002,6345
8117,1466,1208,1193,1480,6345,10316,15002,6345
8117,1466,1235,1213,1470,6345,10316,15002,6345
7751,1469,1212,1207,1491,6345,10316,15002,6345
8117,1462,1254,1181,1481,6345,10316,15002,6345
8117,1466,1212,1206,1471,6345,10316,15002,6345
8117,1467,1227,1204,1481,6345,10316,15002,6345
7751,1469,1211,1194,1481,6345,10316,15002,6345
8117,1469,1225,1201,1472,6345,10316,15002,6345
8117,1468,1231,1210,1486,6345,10316,15002,6345
7751,1460,1246,1202,1484,6345,10316,15002,6345
8117,1469,1229,1209,1474,6345,10316,15002,6345
8117,1467,1230,1162,1484,6345,10316,15002,6345
7751,1464,1216,1214,1485,6345,10316,15002,6345
8117,1466,1216,1197,1474,6345,10316,15002,6345
8117,1466,1232,1213,1487,6345,10316,15002,6345
7751,1458,1211,1216,1482,6345,10316,15002,6345
8117,1467,1255,1194,1474,6345,10316,15002,6345
8117,1466,1216,1216,1470,6345,10316,15002,6345
7751,1465,1256,1208,1481,6345,10316,15002,6345
8117,1470,1223,1191,1480,6345,10316,15002,6345
8117,1471,1215,1208,1472,6345,10316,15002,6345
7751,1471,1218,1188,1485,6345,10316,15002,6345
8117,1466,1263,1188,1474,6345,10316,15002,6345
8117,1467,1215,1210,1472,6345,10316,15002,6345
7751,1461,1235,1161,1495,6345,10316,15002,6345
8117,1466,1214,1213,1481,6345,10316,15002,6345
8117,1468,1231,1208,1476,6345,10316,15002,6345
8117,1466,1234,1210,1485,6345,10316,15002,6345
7751,1470,1214,1206,1481,6345,10316,15002,6345
8117,1466,1235,1210,1476,6345,10316,15002,6345
8117,1461,1233,1181,1486,6345,10316,15002,6345
7751,1463,1250,1209,1487,6345,10316,15002,6345
8117,1463,1231,1163,1475,6345,10316,15002,6345
8117,1466,1223,1205,1487,6345,10316,15002,6345
7751,1466,1210,1195,1485,6345,10316,15002,6345
8117,1467,1251,1187,1475,6345,10316,15002,6345
8117,1465,1208,1217,1489,6345,10316,15002,6345
7751,1466,1255,1189,1484,6345,10316,15002,6345
8117,1467,1214,1210,1474,6345,10316,15002,6345
8117,1466,1232,1208,1472,6345,10316,15002,6345
7751,1466,1207,1190,1479,6345,10316,15002,6345
8117,1465,1211,1213,1474,6345,10316,15002,6345
8117,1469,1233,1208,1467,6345,10316,15002,6345
7751,1466,1250,1196,1486,6345,10316,15002,6345
8117,1463,1226,1219,1477,6345,10316,15002,6345
8117,1467,1238,1178,1474,6345,10316,15002,6345
7751,1466,1237,1223,1488,6345,10316,15002,6345
8117,1466,1215,1225,1480,6345,10316,15002,6345
8117,1463,1240,1218,1475,6345,10316,15002,6345
8117,1465,1221,1224,1482,6345,10316,15002,6345
7751,1465,1258,1220,1475,6345,10316,15002,6345
8117,1464,1236,1186,1475,6345,10316,15002,6345
8117,1471,1228,1223,1484,6345,10316,15002,6345
7751,1468,1217,1199,1479,6345,10316,15002,6345
8117,1468,1236,1217,1473,6345,10316,15002,6345
8117,1467,1236,1221,1488,6345,10316,15002,6345
7751,1471,1256,1198,1485,6345,10316,15002,6345
