7995,16,17,18,14,11247,15651,16948,10965
7995,16,13,961,18,11247,15651,16948,10965
7995,18,16,1150,17,11247,15651,16948,10965
7995,5,20,17,16,11247,15651,16948,10965
7995,18,17,1430,8,11247,15651,16948,10965
7995,21,3,70,16,11247,15651,16948,10965
7995,18,16,18,19,11247,15651,16948,10965
7995,20,14,1487,21,11247,15651,16948,10965
7995,18,21,18,22,11247,15651,16948,10965
7995,18,16,12,21,11247,15651,16948,10965
7995,8,18,17,15,11247,15651,16948,10965
7995,17,16,482,8,11247,15651,16948,10965
7995,19,3,16,12,11247,15651,16948,10965
7995,20,23,14,17,11247,15651,16948,10965
7995,18,21,1481,18,11247,15651,16948,10965
7995,16,16,13,198239,2451,531,195,2525,6345,9761,12948,6345
7995,2462,507,237,2528,6345,9761,12948,6345
7781,2459,486,156,2611,6345,9761,12948,6345
8148,2459,529,145,2546,6345,9761,12948,6345
8148,2469,455,119,2586,6345,9761,12948,6345
7781,2460,441,158,2564,6345,9761,12948,6345
8148,2464,468,92,2527,6345,9761,12948,6345
7781,2460,472,167,2596,6345,9761,12948,6345
8148,2457,463,190,2542,6345,9761,12948,6345
8148,2460,493,243,2583,6345,9761,12948,6345
7781,2460,566,215,2566,6345,9761,12948,6345
8148,2475,506,232,2522,6345,9761,12948,6345
7781,2460,512,206,2591,6345,9761,12948,6345
8148,2460,485,188,2542,6345,9761,12948,6345
8148,2462,496,227,2584,6345,9761,12948,6345
7781,2461,452,154,2562,6345,9761,12948,6345
8148,2460,455,173,2525,6345,9761,12948,6345
7781,2462,447,132,2590,6345,9761,12948,6345
8148,2458,392,177,2538,6345,9761,12948,6345
8148,2460,439,96,2571,6345,9761,12948,6345
7781,2458,409,147,2555,6345,9761,12948,6345
8148,2461,457,208,2520,6345,9761,12948,6345
7781,2460,442,177,2581,6345,9761,12948,6345
8117,2463,515,191,2541,6345,9761,12948,6345
8148,2462,466,159,2511,6345,9761,12948,6345
7781,2459,455,216,2589,6345,9761,12948,6345
8148,2462,481,128,2538,6345,9761,12948,6345
8148,2461,472,239,2581,6345,9761,12948,6345
7781,2462,442,192,2559,6345,9761,12948,6345
8148,2466,462,194,2523,6345,9761,12948,6345
7781,2460,513,157,2583,6345,9761,12948,6345
8148,2463,443,149,2534,6345,9761,12948,6345
7781,2466,457,123,2613,6345,9761,12948,6345
8148,2453,433,141,2555,6345,9761,12948,6345
8148,2468,443,164,2518,6345,9761,12948,6345
7781,2460,423,99,2578,6345,9761,12948,6345
8148,2461,446,145,2535,6345,9761,12948,6345
7781,2460,444,48,2606,6345,9761,12948,6345
8148,2461,402,142,2551,6345,9761,12948,6345
8148,2460,444,76,2515,6345,9761,12948,6345
7781,2455,414,114,2576,6345,9761,12948,6345
8148,2459,440,153,2533,6345,9761,12948,6345
7781,2457,407,147,2602,6345,9761,12948,6345
8117,2460,488,107,2555,6345,9761,12948,6345
8148,2464,432,82,2524,6345,9761,12948,6345
7781,2464,409,130,2580,6345,9761,12948,6345
8148,2458,383,63,2533,6345,9761,12948,6345
8148,2464,419,165,2570,6345,9761,12948,6345
7781,2466,403,133,2555,6345,9761,12948,6345
8148,2460,419,157,2516,6345,9761,12948,6345
7781,2460,471,116,2576,6345,9761,12948,6345
8148,2462,389,108,2534,6345,9761,12948,6345
8148,2460,416,83,2562,6345,9761,12948,6345
7781,2459,377,77,2546,6345,9761,12948,6345
8148,2461,410,105,2517,6345,9761,12948,6345
7781,2456,371,41,2568,6345,9761,12948,6345
8148,2463,411,50,2528,6345,9761,12948,6345
8148,2460,378,0,2583,6345,9761,12948,6345
7781,2464,341,63,2565,6345,9761,12948,6345
8148,2466,386,9,2526,6345,9761,12948,6345
7781,2459,365,51,2588,6345,9761,12948,6345
8148,2467,420,110,2538,6345,9761,12948,6345
8148,2459,373,91,2579,6345,9761,12948,6345
7781,2460,454,84,2552,6345,9761,12948,6345
8148,2459,417,38,2527,6345,9761,12948,6345
7781,2459,368,83,2585,6345,9761,12948,6345
8148,2461,368,13,2538,6345,9761,12948,6345
8148,2460,401,95,2577,6345,9761,12948,6345
7781,2462,387,66,2560,6345,9761,12948,6345
8148,2466,372,81,2524,6345,9761,12948,6345
7781,2458,428,37,2583,6345,9761,12948,6345
8148,2464,377,36,2535,6345,9761,12948,6345
8148,2455,371,56,2569,6345,9761,12948,6345
7781,2457,371,49,2547,6345,9761,12948,6345
8148,2455,404,73,2518,6345,9761,12948,6345
7781,2456,361,25,2579,6345,9761,12948,6345
8148,2457,366,42,2530,6345,9761,12948,6345
8148,2459,364,0,2565,6345,9761,12948,6345
7781,2459,316,47,2548,6345,9761,12948,6345
8148,2469,351,23,2518,6345,9761,12948,6345
7781,2457,339,66,2569,6345,9761,12948,6345
8148,2462,399,151,2531,6345,9761,12948,6345
8148,2460,378,152,2559,6345,9761,12948,6345
7781,2457,446,152,2547,6345,9761,12948,6345
8148,2467,442,120,2512,6345,9761,12948,6345
7781,2460,408,227,2565,6345,9761,12948,6345
8148,2462,455,167,2524,6345,9761,12948,6345
8148,2456,462,274,2557,6345,9761,12948,6345
7781,2462,491,237,2542,6345,9761,12948,6345
8148,2460,439,286,2524,6345,9761,12948,6345
7781,2451,511,265,2586,6345,9761,12948,6345
8148,2461,494,210,2539,6345,9761,12948,6345
7781,2461,475,332,2615,6345,9761,12948,6345
8148,2463,473,256,2557,6345,9761,12948,6345
8148,2459,513,270,2516,6345,9761,12948,6345
7781,2458,493,227,2580,6345,9761,12948,6345
8148,2461,461,233,2533,6345,9761,12948,6345
7781,2460,473,123,2607,6345,9761,12948,6345
8148,2465,424,195,2551,6345,9761,12948,6345
8148,2455,459,211,2594,6345,9761,12948,6345
7781,2452,434,207,2576,6345,9761,12948,6345
8148,2462,488,261,2531,6345,9761,12948,6345
7781,2464,468,223,2601,6345,9761,12948,6345
8148,2467,497,227,2549,6345,9761,12948,6345
8148,2462,516,163,2589,6345,9761,12948,6345
7781,2462,465,234,2568,6345,9761,12948,6345
8148,2460,497,181,2531,6345,9761,12948,6345
7781,2455,486,226,2601,6345,9761,12948,6345
8148,2458,534,168,2550,6345,9761,12948,6345
8148,2467,455,160,2584,6345,9761,12948,6345
7781,2460,499,152,2567,6345,9761,12948,6345
8148,2465,470,56,2523,6345,9761,12948,6345
7781,2453,439,163,2592,6345,9761,12948,6345
8148,2462,424,130,2539,6345,9761,12948,6345
8148,2459,462,179,2575,6345,9761,12948,6345
7781,2466,501,154,2562,6345,9761,12948,6345
8148,2461,448,182,2528,6345,9761,12948,6345
7781,2466,486,184,2590,6345,9761,12948,6345
8148,2461,435,175,2537,6345,9761,12948,6345
8148,2459,462,244,2571,6345,9761,12948,6345
7781,2460,453,193,2554,6345,9761,12948,6345
8148,2460,488,231,2533,6345,9761,12948,6345
7781,2456,473,200,2612,6345,9761,12948,6345
8148,2463,457,222,2552,6345,9761,12948,6345
8148,2460,481,132,2597,6345,9761,12948,6345
7781,2464,428,163,2576,6345,9761,12948,6345
8148,2462,442,159,2535,6345,9761,12948,6345
7781,2462,421,98,2601,6345,9761,12948,6345
8148,2459,468,86,2552,6345,9761,12948,6345
8148,2460,391,72,2590,6345,9761,12948,6345
7781,2464,400,99,2568,6345,9761,12948,6345
8148,2459,415,38,2529,6345,9761,12948,6345
7781,2459,412,120,2599,6345,9761,12948,6345
8148,2462,391,139,2545,6345,9761,12948,6345
8148,2456,428,181,2587,6345,9761,12948,6345
7781,2467,494,158,2566,6345,9761,12948,6345
8148,2459,441,194,2523,6345,9761,12948,6345
7781,2460,469,175,2591,6345,9761,12948,6345
8148,2458,435,170,2540,6345,9761,12948,6345
8148,2453,469,210,2579,6345,9761,12948,6345
7781,2453,437,141,2560,6345,9761,12948,6345
8148,2460,441,139,2524,6345,9761,12948,6345
7781,2460,461,84,2585,6345,9761,12948,6345
8148,2459,363,102,2537,6345,9761,12948,6345
8148,2457,389,16,2573,6345,9761,12948,6345
7781,2460,351,49,2562,6345,9761,12948,6345
8148,2462,373,89,2517,6345,9761,12948,6345
7781,2461,358,29,2580,6345,9761,12948,6345
8148,2458,429,48,2534,6345,9761,12948,6345
8148,2455,390,46,2570,6345,9761,12948,6345
7781,2456,402,129,2556,6345,9761,12948,6345
8148,2466,436,60,2519,6345,9761,12948,6345
7781,2460,403,127,2578,6345,9761,12948,6345
8148,2461,418,149,2543,6345,9761,12948,6345
8148,2459,424,184,2591,6345,9761,12948,6345
7781,2455,485,124,2567,6345,9761,12948,6345
8148,2456,410,105,2525,6345,9761,12948,6345
7781,2464,446,118,2602,6345,9761,12948,6345
8148,2461,405,108,2548,6345,9761,12948,6345
8148,2466,444,153,2586,6345,9761,12948,6345
7781,2459,413,80,2566,6345,9761,12948,6345
8148,2464,414,84,2529,6345,9761,12948,6345
7781,2453,439,30,2597,6345,9761,12948,6345
8148,2463,329,48,2544,6345,9761,12948,6345
8148,2462,345,0,2580,6345,9761,12948,6345
7781,2460,297,22,2568,6345,9761,12948,6345
8148,2460,320,43,2521,6345,9761,12948,6345
7781,2460,290,23,2584,6345,9761,12948,6345
8148,2462,350,20,2536,6345,9761,12948,6345
8148,2460,350,0,2574,6345,9761,12948,6345
7781,2460,327,67,2559,6345,9761,12948,6345
8148,2462,401,35,2519,6345,9761,12948,6345
7781,2467,379,85,2584,6345,9761,12948,6345
8148,2462,421,98,2538,6345,9761,12948,6345
8148,2458,400,108,2569,6345,9761,12948,6345
7781,2459,461,98,2552,6345,9761,12948,6345
8148,2464,413,47,2515,6345,9761,12948,6345
7781,2458,375,80,2576,6345,9761,12948,6345
8148,2459,362,33,2535,6345,9761,12948,6345
8148,2464,394,73,2566,6345,9761,12948,6345
7781,2454,364,32,2545,6345,9761,12948,6345
8148,2462,358,41,2515,6345,9761,12948,6345
7781,2456,400,22,2566,6345,9761,12948,6345
8148,2456,287,39,2529,6345,9761,12948,6345
8148,2455,289,0,2558,6345,9761,12948,6345
7781,2457,246,24,2566,6345,9761,12948,6345
8148,2466,284,44,2525,6345,9761,12948,6345
7781,2464,262,20,2588,6345,9761,12948,6345
8148,2461,312,43,2540,6345,9761,12948,6345
8148,2460,306,0,2578,6345,9761,12948,6345
7781,2457,284,40,2560,6345,9761,12948,6345
8148,2461,331,0,2523,6345,9761,12948,6345
7781,2461,311,19,2587,6345,9761,12948,6345
8148,2459,380,41,2533,6345,9761,12948,6345
8148,2462,314,39,2577,6345,9761,12948,6345
7781,2457,375,18,2559,6345,9761,12948,6345
8148,2460,353,0,2521,6345,9761,12948,6345
7781,2459,312,25,2579,6345,9761,12948,6345
8148,2461,326,0,2530,6345,9761,12948,6345
8148,2467,353,49,2568,6345,9761,12948,6345
7781,2453,362,37,2558,6345,9761,12948,6345
8148,2460,324,44,2515,6345,9761,12948,6345
7781,2454,376,22,2572,6345,9761,12948,6345
8148,2457,257,32,2531,6345,9761,12948,6345
8148,2453,248,0,2566,6345,9761,12948,6345
7781,2453,220,20,2542,6345,9761,12948,6345
8148,2467,247,43,2517,6345,9761,12948,6345
7781,2455,209,20,2567,6345,9761,12948,6345
8148,2459,195,40,2530,6345,9761,12948,6345
8117,2455,228,0,2568,6345,9738,12962,6345
7781,2459,7,40,2558,6345,9738,12962,6345
8148,2460,30,0,2517,6345,9738,12962,6345
7781,2455,5,20,2578,6345,9738,12962,6345
8148,2461,10,20,2531,6345,9738,12962,6345
8148,2459,5,43,2561,6345,9738,12962,6345
7781,2456,56,21,2548,6345,9738,12962,6345
8148,2453,6,0,2515,6345,9738,12962,6345
7781,2454,3,50,2598,6345,9738,12962,6345
8148,2461,0,23,2547,6345,9738,12962,6345
8148,2455,29,44,2589,6345,9738,12962,6345
7781,2459,8,43,2568,6345,9738,12962,6345
8148,2467,6,37,2529,6345,9738,12962,6345
7781,2460,58,19,2596,6345,9738,12962,6345
8148,2460,8,42,2539,6345,9738,12962,6345
8148,2453,7,16,2578,6345,9738,12962,6345
7781,2458,5,25,2565,6345,9738,12962,6345
8148,2469,30,56,2526,6345,9738,12962,6345
7781,2456,8,50,2594,6345,9738,12962,6345
8148,2463,50,34,2541,6345,9738,12962,6345
8148,2464,34,1,2580,6345,9738,12962,6345
7781,2462,2,61,2557,6345,9738,12962,6345
8148,2458,28,33,2526,6345,9738,12962,6345
7781,2459,8,25,2585,6345,9738,12962,6345
8148,2463,57,22,2534,6345,9738,12962,6345
8148,2457,7,45,2571,6345,9738,12962,6345
7781,2459,52,20,2554,6345,9738,12962,6345
8148,2458,31,0,2517,6345,9738,12962,6345
7781,2462,7,38,2582,6345,9738,12962,6345
8148,2458,0,20,2530,6345,9738,12962,6345
8148,2460,28,44,2568,6345,9738,12962,6345
7781,2453,17,21,2546,6345,9738,12962,6345
8148,2460,3,37,2518,6345,9738,12962,6345
7781,2455,63,22,2575,6345,9738,12962,6345
8148,2459,7,20,2533,6345,9738,12962,6345
8148,2460,5,8,2563,6345,9738,12962,6345
7781,2459,0,23,2547,6345,9738,12962,6345
8148,2457,28,52,2509,6345,9738,12962,6345
7781,2460,6,43,2565,6345,9738,12962,6345
8148,2460,6,37,2531,6345,9738,12962,6345
8148,2459,32,0,2581,6345,9738,12962,6345
7781,2456,1,39,2565,6345,9738,12962,6345
8148,2459,3,0,2521,6345,9738,12962,6345
7781,2456,7,19,2591,6345,9738,12962,6345
8148,2460,64,42,2534,6345,9738,12962,6345
8148,2460,2,40,2579,6345,9738,12962,6345
7781,2460,51,20,2556,6345,9738,12962,6345
8148,2459,30,0,2523,6345,9738,12962,6345
7781,2457,1,47,2581,6345,9738,12962,6345
8148,2458,0,31,2534,6345,9738,12962,6345
8148,2454,27,102,2576,6345,9738,12962,6345
7781,2459,61,87,2557,6345,9738,12962,6345
8148,2456,19,70,2523,6345,9738,12962,6345
7781,2445,64,86,2582,6345,9738,12962,6345
8148,2462,16,13,2537,6345,9738,12962,6345
8148,2456,22,97,2571,6345,9738,12962,6345
7781,2445,21,28,2547,6345,9738,12962,6345
8148,2460,32,50,2518,6345,9738,12962,6345
7781,2459,12,23,2576,6345,9738,12962,6345
8148,2456,6,41,2528,6345,9738,12962,6345
8148,2459,35,2,2564,6345,9738,12962,6345
7781,2453,7,39,2554,6345,9738,12962,6345
8148,2461,28,90,2517,6345,9738,12962,6345
7781,2459,36,51,2571,6345,9738,12962,6345
8148,2459,63,97,2529,6345,9738,12962,6345
8148,2460,59,34,2559,6345,9738,12962,6345
7781,2454,23,61,2545,6345,9738,12962,6345
8148,2461,61,0,2514,6345,9738,12962,6345
7781,2457,25,46,2571,6345,9738,12962,6345
8148,2462,39,17,2525,6345,9738,12962,6345
8148,2463,40,41,2556,6345,9738,12962,6345
7781,2455,69,20,2538,6345,9738,12962,6345
8148,2464,34,32,2525,6345,9738,12962,6345
7781,2456,60,20,2582,6345,9738,12962,6345
8148,2460,46,0,2542,6345,9738,12962,6345
8148,2467,47,44,2579,6345,9738,12962,6345
7781,2460,36,20,2556,6345,9738,12962,6345
8148,2467,57,41,2524,6345,9738,12962,6345
7781,2458,127,23,2578,6345,9738,12962,6345
8148,2462,65,39,2533,6345,9738,12962,6345
7781,2459,87,0,2615,6345,9738,12962,6345
8148,2458,65,23,2549,6345,9738,12962,6345
8148,2467,89,48,2518,6345,9738,12962,6345
7781,2453,60,20,2577,6345,9738,12962,6345
8148,2456,67,41,2529,6345,9738,12962,6345
7781,2460,45,0,2604,6345,9738,12962,6345
8148,2463,15,44,2548,6345,9738,12962,6345
8148,2455,46,0,2518,6345,9738,12962,6345
7781,2458,18,23,2568,6345,9738,12962,6345
8148,2458,50,43,2534,6345,9738,12962,6345
7781,2459,34,39,2602,6345,9738,12962,6345
8148,2460,95,20,2546,6345,9738,12962,6345
8148,2459,65,38,2583,6345,9738,12962,6345
7781,2458,18,20,2568,6345,9738,12962,6345
8148,2457,50,0,2532,6345,9738,12962,6345
7781,2461,35,50,2597,6345,9738,12962,6345
8148,2461,13,20,2544,6345,9738,12962,6345
8148,2459,32,49,2578,6345,9738,12962,6345
7781,2462,63,21,2560,6345,9738,12962,6345
8148,2467,38,36,2525,6345,9738,12962,6345
7781,2458,47,0,2589,6345,9738,12962,6345
8148,2462,27,23,2539,6345,9738,12962,6345
8148,2460,68,37,2570,6345,9738,12962,6345
7781,2459,56,20,2559,6345,9738,12962,6345
8148,2460,56,44,2533,6345,9738,12962,6345
7781,2458,48,26,2612,6345,9738,12962,6345
8148,2465,8,44,2549,6345,9738,12962,6345
8148,2461,35,0,2599,6345,9738,12962,6345
7781,2464,8,18,2574,6345,9738,12962,6345
8148,2459,14,43,2537,6345,9738,12962,6345
7781,2457,3,19,2597,6345,9738,12962,6345
8148,2461,62,20,2550,6345,9738,12962,6345
8148,2457,38,0,2591,6345,9738,12962,6345
7781,2458,5,41,2572,6345,9738,12962,6345
8148,2465,39,0,2527,6345,9738,12962,6345
7781,2460,36,19,2598,6345,9738,12962,6345
8148,2457,19,41,2546,6345,9738,12962,6345
8148,2460,9,41,2586,6345,9738,12962,6345
7781,2460,61,20,2568,6345,9738,12962,6345
8148,2460,9,28,2522,6345,9738,12962,6345
7781,2455,4,18,2596,6345,9738,12962,6345
8148,2461,0,20,2537,6345,9738,12962,6345
8148,2460,30,43,2581,6345,9738,12962,6345
7781,2456,11,20,2559,6345,9738,12962,6345
8148,2460,30,49,2520,6345,9738,12962,6345
7781,2460,33,21,2581,6345,9738,12962,6345
8148,2458,4,39,2537,6345,9738,12962,6345
8148,2462,27,0,2576,6345,9738,12962,6345
7781,2453,7,18,2555,6345,9738,12962,6345
8148,2466,32,43,2519,6345,9738,12962,6345
7781,2458,6,22,2581,6345,9738,12962,6345
8148,2462,50,19,2536,6345,9738,12962,6345
8148,2459,32,0,2569,6345,9738,12962,6345
7781,2458,0,38,2553,6345,9738,12962,6345
8148,2458,33,0,2518,6345,9738,12962,6345
7781,2460,14,21,2580,6345,9738,12962,6345
8148,2462,18,19,2544,6345,9738,12962,6345
8148,2464,18,45,2592,6345,9738,12962,6345
7781,2461,55,20,2573,6345,9738,12962,6345
8148,2463,53,0,2528,6345,9738,12962,6345
7781,2457,11,45,2597,6345,9738,12962,6345
8148,2460,31,24,2544,6345,9738,12962,6345
8148,2453,46,43,2585,6345,9738,12962,6345
7781,2460,43,42,2564,6345,9738,12962,6345
8148,2461,10,37,2525,6345,9738,12962,6345
7781,2467,55,20,2596,6345,9738,12962,6345
8148,2464,10,38,2538,6345,9738,12962,6345
8148,2459,7,0,2582,6345,9738,12962,6345
7781,2460,0,23,2561,6345,9738,12962,6345
8148,2460,32,43,2527,6345,9738,12962,6345
7781,2450,3,21,2588,6345,9738,12962,6345
8148,2458,54,21,2540,6345,9738,12962,6345
8148,2457,30,0,2572,6345,9738,12962,6345
7781,2455,7,43,2556,6345,9738,12962,6345
8148,2452,28,0,2516,6345,9738,12962,6345
7781,2455,8,21,2581,6345,9738,12962,6345
8148,2460,54,20,2533,6345,9738,12962,6345
8148,2453,18,42,2574,6345,9738,12962,6345
7781,2453,56,19,2552,6345,9738,12962,6345
8148,2461,37,0,2516,6345,9738,12962,6345
7781,2457,8,39,2577,6345,9738,12962,6345
8148,2459,11,22,2533,6345,9738,12962,6345
8148,2460,31,45,2565,6345,9738,12962,6345
7781,2455,64,24,2550,6345,9738,12962,6345
8148,2454,18,42,2519,6345,9738,12962,6345
7781,2455,59,21,2575,6345,9738,12962,6345
8148,2460,4,21,2531,6345,9738,12962,6345
8148,2459,1,42,2563,6345,9738,12962,6345
7781,2455,7,22,2565,6345,9738,12962,6345
8148,2464,32,41,2531,6345,9738,12962,6345
7781,2453,8,34,2591,6345,9738,12962,6345
8148,2457,5,21,2541,6345,9738,12962,6345
8148,2462,31,0,2580,6345,9738,12962,6345
7781,2457,4,38,2558,6345,9738,12962,6345
8148,2461,8,1,2520,6345,9738,12962,6345
7781,2459,4,21,2586,6345,9738,12962,6345
8148,2463,65,21,2542,6345,9738,12962,6345
8148,2464,11,34,2576,6345,9738,12962,6345
7781,2460,52,19,2555,6345,9738,12962,6345
8148,2460,46,0,2521,6345,9738,12962,6345
7781,2467,6,38,2584,6345,9738,12962,6345
8148,2466,12,0,2533,6345,9738,12962,6345
8148,2455,30,41,2571,6345,9738,12962,6345
7781,2455,55,18,2553,6345,9738,12962,6345
8148,2460,7,42,2519,6345,9738,12962,6345
7781,2460,56,21,2580,6345,9738,12962,6345
8148,2460,7,0,2532,6345,9738,12962,6345
8148,2453,11,43,2564,6345,9738,12962,6345
7781,2454,4,23,2549,6345,9738,12962,6345
8148,2466,35,38,2518,6345,9738,12962,6345
7781,2455,58,23,2572,6345,9738,12962,6345
8148,2462,6,47,2529,6345,9738,12962,6345
8148,2456,30,0,2566,6345,9738,12962,6345
7781,2460,7,20,2547,6345,9738,12962,6345
8148,2461,4,37,2510,6345,9738,12962,6345
7781,2459,8,20,2565,6345,9738,12962,6345
8148,2458,50,41,2527,6345,9738,12962,6345
8148,2459,11,31,2557,6345,9738,12962,6345
7781,2460,4,18,2538,6345,9738,12962,6345
8148,2459,32,0,2513,6345,9738,12962,6345
7781,2457,1,21,2583,6345,9738,12962,6345
8148,2462,7,1,2537,6345,9738,12962,6345
8148,2464,29,41,2577,6345,9738,12962,6345
7781,2454,59,21,2556,6345,9738,12962,6345
8148,2460,5,36,2521,6345,9738,12962,6345
7781,2460,45,22,2586,6345,9738,12962,6345
8148,2458,32,0,2539,6345,9738,12962,6345
8148,2462,33,41,2576,6345,9738,12962,6345
7781,2467,2,21,2557,6345,9738,12962,6345
8148,2466,35,44,2526,6345,9738,12962,6345
7781,2466,65,21,2575,6345,9738,12962,6345
8148,2466,9,42,2535,6345,9738,12962,6345
8148,2463,25,0,2564,6345,9738,12962,6345
7781,2460,0,21,2552,6345,9738,12962,6345
8148,2462,31,40,2515,6345,9738,12962,6345
7781,2457,7,21,2574,6345,9738,12962,6345
8148,2460,29,49,2527,6345,9738,12962,6345
8148,2453,35,0,2560,6345,9738,12962,6345
7781,2453,3,39,2549,6345,9738,12962,6345
8148,2459,28,0,2514,6345,9738,12962,6345
7781,2460,0,21,2573,6345,9738,12962,6345
8148,2460,7,42,2524,6345,9738,12962,6345
7781,2464,2,39,2600,6345,9738,12962,6345
8148,2460,60,22,2542,6345,9738,12962,6345
8148,2457,8,27,2514,6345,9738,12962,6345
7781,2460,1,20,2561,6345,9738,12962,6345
8148,2458,31,0,2527,6345,9738,12962,6345
7781,2460,32,43,2592,6345,9738,12962,6345
8148,2463,11,18,2539,6345,9738,12962,6345
8148,2459,27,49,2516,6345,9738,12962,6345
7781,2460,62,21,2564,6345,9738,12962,6345
8148,2460,9,38,2518,6345,9738,12962,6345
7781,2460,24,0,2613,6345,9738,12962,6345
8148,2459,2,20,2547,6345,9738,12962,6345
8148,2459,28,45,2601,6345,9738,12962,6345
7781,2466,9,17,2580,6345,9738,12962,6345
8148,2466,27,49,2534,6345,9738,12962,6345
7781,2459,31,0,2610,6345,9738,12962,6345
8148,2464,5,41,2550,6345,9738,12962,6345
8148,2460,26,0,2599,6345,9738,12962,6345
7781,2459,3,20,2572,6345,9738,12962,6345
8148,2461,31,44,2534,6345,9738,12962,6345
7781,2457,2,39,2601,6345,9738,12962,6345
8148,2463,54,24,2547,6345,9738,12962,6345
8148,2456,34,0,2589,6345,9738,12962,6345
7781,2459,1,39,2572,6345,9738,12962,6345
8148,2462,32,0,2529,6345,9738,12962,6345
7781,2458,31,19,2599,6345,9738,12962,6345
8148,2462,15,31,2543,6345,9738,12962,6345
8148,2465,2,44,2584,6345,9738,12962,6345
7781,2466,64,21,2567,6345,9738,12962,6345
8148,2460,8,0,2526,6345,9738,12962,6345
7781,2460,7,22,2587,6345,9738,12962,6345
8148,2458,8,21,2540,6345,9738,12962,6345
8148,2460,35,49,2579,6345,9738,12962,6345
7781,2457,14,18,2562,6345,9738,12962,6345
8148,2467,24,43,2519,6345,9738,12962,6345
7781,2458,30,19,2587,6345,9738,12962,6345
8148,2461,8,40,2540,6345,9738,12962,6345
8148,2463,6,0,2570,6345,9738,12962,6345
7781,2453,0,21,2557,6345,9738,12962,6345
8148,2464,31,49,2518,6345,9738,12962,6345
7781,2460,4,20,2578,6345,9738,12962,6345
8148,2459,57,22,2534,6345,9738,12962,6345
8148,2462,35,0,2598,6345,9738,12962,6345
7781,2455,0,39,2573,6345,9738,12962,6345
8148,2467,29,0,2531,6345,9738,12962,6345
7781,2453,29,21,2600,6345,9738,12962,6345
8148,2458,57,22,2545,6345,9738,12962,6345
8148,2460,6,41,2591,6345,9738,12962,6345
7781,2458,48,20,2570,6345,9738,12962,6345
8148,2465,29,0,2523,6345,9738,12962,6345
7781,2460,8,42,2600,6345,9738,12962,6345
8148,2463,2,20,2541,6345,9738,12962,6345
8148,2462,28,47,2584,6345,9738,12962,6345
7781,2456,13,32,2563,6345,9738,12962,6345
8148,2467,5,43,2524,6345,9738,12962,6345
7781,2461,56,20,2588,6345,9738,12962,6345
8148,2463,8,20,2538,6345,9738,12962,6345
8148,2451,12,0,2580,6345,9738,12962,6345
7781,2453,8,20,2558,6345,9738,12962,6345
8148,2460,31,42,2522,6345,9738,12962,6345
7781,2458,12,21,2590,6345,9738,12962,6345
8148,2465,48,19,2537,6345,9738,12962,6345
8148,2457,31,0,2577,6345,9738,12962,6345
7781,2459,8,38,2550,6345,9738,12962,6345
8148,2462,6,0,2522,6345,9738,12962,6345
7781,2460,7,21,2580,6345,9738,12962,6345
8148,2458,58,20,2532,6345,9738,12962,6345
8148,2454,7,41,2563,6345,9738,12962,6345
7781,2450,50,20,2552,6345,9738,12962,6345
8148,2455,29,0,2518,6345,9738,12962,6345
7781,2455,0,40,2576,6345,9738,12962,6345
8148,2462,7,21,2530,6345,9738,12962,6345
8148,2459,29,39,2564,6345,9738,12962,6345
7781,2459,57,20,2553,6345,9738,12962,6345
8148,2459,2,38,2527,6345,9738,12962,6345
7781,2460,55,21,2596,6345,9738,12962,6345
8148,2462,7,20,2544,6345,9738,12962,6345
8148,2467,8,46,2584,6345,9738,12962,6345
7781,2460,10,24,2565,6345,9738,12962,6345
8148,2466,32,42,2529,6345,9738,12962,6345
7781,2459,8,22,2594,6345,9738,12962,6345
8148,2457,0,20,2544,6345,9738,12962,6345
8148,2460,33,0,2580,6345,9738,12962,6345
7781,2462,8,23,2559,6345,9738,12962,6345
8148,2467,8,5,2520,6345,9738,12962,6345
7781,2460,2,21,2590,6345,9738,12962,6345
8148,2461,63,21,2537,6345,9738,12962,6345
8148,2457,9,36,2572,6345,9738,12962,6345
7781,2456,2,21,2555,6345,9738,12962,6345
8148,2469,33,0,2521,6345,9738,12962,6345
7781,2459,0,39,2584,6345,9738,12962,6345
8148,2460,7,18,2536,6345,9738,12962,6345
8148,2460,33,41,2568,6345,9738,12962,6345
7781,2457,63,20,2553,6345,9738,12962,6345
8148,2466,5,43,2520,6345,9738,12962,6345
7781,2463,52,21,2572,6345,9738,12962,6345
8148,2460,0,0,2532,6345,9738,12962,6345
8148,2452,30,34,2567,6345,9738,12962,6345
7781,2459,7,22,2556,6345,9738,12962,6345
8148,2459,28,45,2518,6345,9738,12962,6345
7781,2460,63,21,2571,6345,9738,12962,6345
8148,2457,14,46,2529,6345,9738,12962,6345
8148,2457,28,0,2562,6345,9738,12962,6345
7781,2457,4,22,2539,6345,9738,12962,6345
8148,2450,5,41,2514,6345,9738,12962,6345
7781,2453,3,20,2564,6345,9738,12962,6345
8148,2458,56,40,2539,6345,9738,12962,6345
8148,2462,13,0,2578,6345,9738,12962,6345
7781,2460,2,21,2562,6345,9738,12962,6345
8148,2464,32,0,2518,6345,9738,12962,6345
7781,2457,7,21,2585,6345,9738,12962,6345
8148,2464,12,2,2535,6345,9738,12962,6345
8148,2460,25,42,2575,6345,9738,12962,6345
7781,2460,53,21,2550,6345,9738,12962,6345
8148,2451,6,35,2522,6345,9738,12962,6345
7781,2460,0,21,2576,6345,9738,12962,6345
8148,2463,7,0,2534,6345,9738,12962,6345
8148,2461,32,36,2573,6345,9738,12962,6345
7781,2459,10,18,2553,6345,9738,12962,6345
8148,2464,26,42,2516,6345,9738,12962,6345
7781,2455,62,18,2576,6345,9738,12962,6345
8148,2463,6,42,2532,6345,9738,12962,6345
8148,2453,29,0,2559,6345,9738,12962,6345
7781,2451,6,22,2544,6345,9738,12962,6345
8148,2459,32,43,2516,6345,9738,12962,6345
7781,2453,7,19,2570,6345,9738,12962,6345
8148,2460,27,43,2523,6345,9738,12962,6345
8148,2456,28,0,2563,6345,9738,12962,6345
7781,2456,8,42,2545,6345,9738,12962,6345
8148,2460,32,0,2511,6345,9738,12962,6345
7781,2457,5,22,2564,6345,9738,12962,6345
8148,2458,9,41,2524,6345,9738,12962,6345
8148,2462,6,43,2553,6345,9738,12962,6345
7781,2453,55,18,2540,6345,9738,12962,6345
8148,2464,7,0,2510,6345,9738,12962,6345
7781,2451,2,25,2558,6345,9738,12962,6345
8148,2460,29,0,2520,6345,9738,12962,6345
8148,2455,31,42,2553,6345,9738,12962,6345
7781,2453,11,39,2552,6345,9738,12962,6345
8148,2458,5,38,2518,6345,9738,12962,6345
7781,2461,57,19,2582,6345,9738,12962,6345
8148,2459,6,29,2532,6345,9738,12962,6345
7781,2459,6,0,2607,6345,9738,12962,6345
8148,2460,0,19,2552,6345,9738,12962,6345
8148,2459,31,41,2518,6345,9738,12962,6345
7781,2458,5,18,2573,6345,9738,12962,6345
8148,2458,29,43,2528,6345,9738,12962,6345
7781,2452,29,0,2600,6345,9738,12962,6345
8148,2458,0,36,2546,6345,9738,12962,6345
8148,2460,28,0,2591,6345,9738,12962,6345
7781,2460,3,24,2572,6345,9738,12962,6345
8148,2458,34,43,2528,6345,9738,12962,6345
7781,2460,5,39,2597,6345,9738,12962,6345
8148,2460,53,21,2548,6345,9761,13000,6345
8148,2457,271,0,2589,6345,9761,13000,6345
7781,2456,230,41,2565,6345,9761,13000,6345
8148,2462,268,0,2532,6345,9761,13000,6345
7781,2464,263,45,2592,6345,9761,13000,6345
8148,2461,295,20,2539,6345,9761,13000,6345
8148,2466,237,34,2579,6345,9761,13000,6345
7781,2464,290,20,2563,6345,9761,13000,6345
8148,2460,247,0,2522,6345,9761,13000,6345
7781,2460,242,43,2592,6345,9761,13000,6345
8148,2462,246,21,2536,6345,9761,13000,6345
8148,2462,301,44,2580,6345,9761,13000,6345
7781,2460,333,41,2559,6345,9761,13000,6345
8148,2464,282,39,2524,6345,9761,13000,6345
7781,2467,308,22,2585,6345,9761,13000,6345
8148,2463,255,36,2540,6345,9761,13000,6345
8148,2459,264,0,2576,6345,9761,13000,6345
7781,2459,242,21,2578,6345,9761,13000,6345
8148,2469,277,54,2531,6345,9761,13000,6345
7781,2460,226,20,2606,6345,9761,13000,6345
8148,2466,243,21,2551,6345,9761,13000,6345
8148,2464,232,0,2593,6345,9761,13000,6345
7781,2459,153,38,2573,6345,9761,13000,6345
8148,2467,129,0,2532,6345,9761,13000,6345
7781,2459,78,23,2599,6345,9761,13000,6345
8148,2461,74,19,2546,6345,9761,13000,6345
8148,2466,17,42,2585,6345,9761,13000,6345
7781,2462,54,18,2570,6345,9761,13000,6345
8148,2459,34,0,2528,6345,9761,13000,6345
7781,2456,8,43,2596,6345,9761,13000,6345
8148,2463,4,21,2545,6345,9761,13000,6345
8148,2464,42,44,2583,6345,9761,13000,6345
7781,2462,147,21,2557,6345,9761,13000,6345
8148,2460,158,39,2522,6345,9761,13000,6345
7781,2458,214,21,2588,6345,9761,13000,6345
8148,2462,172,22,2540,6345,9761,13000,6345
8148,2459,157,36,2579,6345,9761,13000,6345
7781,2455,97,21,2558,6345,9761,13000,6345
8148,2467,75,43,2522,6345,9761,13000,6345
7781,2459,22,40,2588,6345,9761,13000,6345
8148,2460,7,22,2535,6345,9761,13000,6345
8148,2460,29,0,2575,6345,9761,13000,6345
7781,2460,2,33,2556,6345,9761,13000,6345
8148,2462,0,0,2522,6345,9761,13000,6345
7781,2460,4,20,2582,6345,9761,13000,6345
8148,2462,61,21,2533,6345,9761,13000,6345
8148,2457,5,36,2564,6345,9761,13000,6345
7781,2460,56,21,2550,6345,9761,13000,6345
8148,2459,31,0,2513,6345,9761,13000,6345
7781,2461,0,40,2601,6345,9761,13000,6345
8148,2460,7,19,2545,6345,9761,13000,6345
8148,2460,26,45,2590,6345,9761,13000,6345
7781,2459,63,20,2571,6345,9761,13000,6345
8148,2460,32,44,2531,6345,9761,13000,6345
7781,2455,86,22,2587,6345,9761,13000,6345
8148,2459,22,21,2546,6345,9761,13000,6345
8148,2465,18,42,2586,6345,9761,13000,6345
7781,2460,9,18,2562,6345,9761,13000,6345
8148,2463,28,41,2529,6345,9761,13000,6345
7781,2460,21,19,2593,6345,9761,13000,6345
8148,2461,8,40,2542,6345,9761,13000,6345
8148,2463,29,0,2579,6345,9761,13000,6345
7781,2460,5,20,2559,6345,9761,13000,6345
8148,2459,7,40,2525,6345,9761,13000,6345
7781,2466,2,22,2583,6345,9761,13000,6345
8148,2461,55,21,2536,6345,9761,13000,6345
8148,2456,5,34,2574,6345,9761,13000,6345
7781,2459,2,20,2548,6345,9761,13000,6345
8148,2460,30,0,2524,6345,9761,13000,6345
7781,2459,3,33,2578,6345,9761,13000,6345
8148,2465,11,20,2536,6345,9761,13000,6345
8148,2462,29,43,2571,6345,9761,13000,6345
7781,2459,59,20,2550,6345,9761,13000,6345
8148,2462,8,31,2517,6345,9761,13000,6345
7781,2460,58,20,2580,6345,9761,13000,6345
8148,2465,1,22,2532,6345,9761,13000,6345
8148,2460,31,43,2569,6345,9761,13000,6345
7781,2464,5,19,2547,6345,9761,13000,6345
8148,2454,28,40,2521,6345,9761,13000,6345
7781,2460,66,22,2572,6345,9761,13000,6345
8148,2457,0,41,2529,6345,9761,13000,6345
8148,2460,32,0,2583,6345,9761,13000,6345
7781,2463,4,22,2564,6345,9761,13000,6345
8148,2460,9,41,2523,6345,9761,13000,6345
7781,2459,7,18,2593,6345,9761,13000,6345
8148,2465,58,43,2541,6345,9761,13000,6345
8148,2460,35,0,2585,6345,9761,13000,6345
7781,2459,7,42,2557,6345,9761,13000,6345
8148,2465,31,0,2520,6345,9761,13000,6345
7781,2459,5,28,2585,6345,9761,13000,6345
8148,2460,11,40,2538,6345,9761,13000,6345
8148,2455,7,43,2577,6345,9761,13000,6345
7781,2457,59,20,2558,6345,9761,13000,6345
8148,2462,4,23,2520,6345,9761,13000,6345
7781,2459,2,20,2579,6345,9761,13000,6345
8148,2460,0,0,2539,6345,9761,13000,6345
8148,2456,32,45,2569,6345,9761,13000,6345
7781,2457,10,18,2555,6345,9761,13000,6345
8148,2457,31,38,2516,6345,9761,13000,6345
7781,2466,62,22,2576,6345,9761,13000,6345
8148,2461,7,33,2530,6345,9761,13000,6345
8148,2458,28,0,2564,6345,9761,13000,6345
7781,2467,0,19,2546,6345,9761,13000,6345
8148,2459,30,41,2515,6345,9761,13000,6345
7781,2458,0,20,2573,6345,9761,13000,6345
8148,2459,50,41,2531,6345,9761,13000,6345
8148,2463,29,0,2563,6345,9761,13000,6345
7781,2455,5,42,2542,6345,9761,13000,6345
8148,2461,31,0,2513,6345,9761,13000,6345
7781,2457,5,20,2567,6345,9761,13000,6345
8148,2458,11,41,2525,6345,9761,13000,6345
8148,2455,7,40,2558,6345,9761,13000,6345
7781,2460,58,19,2540,6345,9761,13000,6345
8148,2461,32,0,2523,6345,9761,13000,6345
7781,2456,5,38,2584,6345,9761,13000,6345
8148,2463,31,0,2539,6345,9761,13000,6345
8148,2454,32,44,2574,6345,9761,13000,6345
7781,2457,10,34,2551,6345,9761,13000,6345
8148,2460,6,33,2517,6345,9761,13000,6345
7781,2462,55,19,2585,6345,9761,13000,6345
8148,2464,8,29,2534,6345,9761,13000,6345
8148,2453,5,0,2570,6345,9761,13000,6345
7781,2458,0,18,2551,6345,9761,13000,6345
8148,2467,29,42,2517,6345,9761,13000,6345
7781,2456,7,18,2579,6345,9761,13000,6345
8148,2463,25,37,2532,6345,9761,13000,6345
7781,2458,33,0,2608,6345,9761,13000,6345
8117,2459,7,43,2559,6345,9761,13000,6345
8148,2466,27,0,2525,6345,9761,13000,6345
7781,2466,7,24,2584,6345,9761,13000,6345
8148,2457,61,21,2540,6345,9761,13000,6345
8148,2456,4,43,2572,6345,9761,13000,6345
7781,2459,50,21,2554,6345,9761,13000,6345
8148,2460,29,0,2516,6345,9761,13000,6345
7781,2459,7,37,2581,6345,9761,13000,6345
8148,2462,5,21,2534,6345,9761,13000,6345
8148,2467,31,44,2566,6345,9761,13000,6345
7781,2460,10,38,2548,6345,9761,13000,6345
8148,2466,4,40,2521,6345,9761,13000,6345
7781,2460,58,23,2572,6345,9761,13000,6345
8148,2458,0,33,2528,6345,9761,13000,6345
8148,2459,5,0,2561,6345,9761,13000,6345
7781,2460,5,19,2548,6345,9761,13000,6345
8148,2456,29,41,2517,6345,9761,13000,6345
7781,2457,4,15,2571,6345,9761,13000,6345
8148,2459,41,40,2544,6345,9761,13000,6345
8148,2455,29,0,2581,6345,9761,13000,6345
7751,2456,7,40,2571,6345,9761,13000,6345
8148,2460,30,0,2531,6345,9761,13000,6345
7781,2460,34,20,2604,6345,9761,13000,6345
8148,2460,61,18,2547,6345,9761,13000,6345
8148,2464,2,39,2588,6345,9761,13000,6345
7781,2462,61,19,2566,6345,9761,13000,6345
8148,2460,36,0,2526,6345,9761,13000,6345
7781,2460,8,41,2595,6345,9761,13000,6345
8148,2459,5,22,2546,6345,9761,13000,6345
8148,2466,31,36,2583,6345,9761,13000,6345
7781,2457,9,36,2566,6345,9761,13000,6345
8148,2464,0,42,2521,6345,9761,13000,6345
7781,2455,63,20,2595,6345,9761,13000,6345
8148,2462,2,17,2542,6345,9761,13000,6345
8148,2460,9,0,2583,6345,9761,13000,6345
7781,2453,1,20,2558,6345,9761,13000,6345
8148,2466,32,41,2520,6345,9761,13000,6345
7781,2457,35,19,2588,6345,9761,13000,6345
8148,2459,48,20,2535,6345,9761,13000,6345
8148,2456,48,0,2575,6345,9761,13000,6345
7751,2453,14,38,2568,6345,9761,13000,6345
8148,2460,47,0,2523,6345,9761,13000,6345
7781,2456,34,43,2591,6345,9761,13000,6345
8148,2461,67,20,2541,6345,9761,13000,6345
8148,2460,15,45,2511,6345,9761,13000,6345
7781,2459,60,23,2559,6345,9761,13000,6345
8148,2456,37,0,2521,6345,9761,13000,6345
7781,2460,36,37,2591,6345,9761,13000,6345
8148,2458,29,23,2539,6345,9761,13000,6345
8148,2462,53,38,2574,6345,9761,13000,6345
7781,2460,78,31,2581,6345,9761,13000,6345
8148,2460,44,38,2532,6345,9761,13000,6345
7781,2464,82,0,2617,6345,9761,13000,6345
8148,2463,47,21,2555,6345,9761,13000,6345
8148,2467,78,0,2598,6345,9761,13000,6345
7781,2457,66,22,2576,6345,9761,13000,6345
8148,2462,115,40,2534,6345,9761,13000,6345
7781,2459,73,36,2614,6345,9761,13000,6345
8148,2466,87,21,2549,6345,9761,13000,6345
8148,2460,93,0,2597,6345,9761,13000,6345
7751,2459,36,39,2582,6345,9761,13000,6345
8148,2459,31,0,2542,6345,9761,13000,6345
8148,2459,60,40,2571,6345,9761,13000,6345
7781,2453,104,20,2559,6345,9761,13000,6345
8148,2469,68,36,2517,6345,9761,13000,6345
7781,2460,116,21,2580,6345,9761,13000,6345
8148,2465,80,0,2533,6345,9761,13000,6345
8148,2459,101,37,2572,6345,9761,13000,6345
7781,2457,68,20,2552,6345,9761,13000,6345
8148,2463,91,41,2519,6345,9761,13000,6345
7781,2460,108,33,2571,6345,9761,13000,6345
8148,2459,15,44,2532,6345,9761,13000,6345
8148,2464,48,0,2568,6345,9761,13000,6345
7781,2460,22,21,2545,6345,9761,13000,6345
8148,2464,55,0,2515,6345,9761,13000,6345
7781,2452,55,22,2567,6345,9761,13000,6345
8148,2460,108,43,2527,6345,9761,13000,6345
8148,2460,102,37,2558,6345,9761,13000,6345
7781,2460,108,22,2545,6345,9761,13000,6345
8148,2462,130,0,2511,6345,9761,13000,6345
7751,2455,91,38,2575,6345,9761,13000,6345
8148,2460,97,21,2532,6345,9761,13000,6345
8148,2457,115,40,2593,6345,9761,13000,6345
7781,2460,161,22,2572,6345,9761,13000,6345
8148,2462,96,40,2529,6345,9761,13000,6345
7781,2459,149,21,2600,6345,9761,13000,6345
8148,2466,70,21,2547,6345,9761,13000,6345
8148,2463,90,47,2587,6345,9761,13000,6345
7781,2467,50,18,2560,6345,9761,13000,6345
8148,2464,74,43,2526,6345,9761,13000,6345
7781,2460,90,35,2593,6345,9761,13000,6345
8148,2464,35,19,2537,6345,9761,13000,6345
8148,2453,87,0,2580,6345,9761,13000,6345
7781,2459,59,22,2561,6345,9761,13000,6345
8148,2461,87,1,2524,6345,9761,13000,6345
7781,2455,91,20,2586,6345,9761,13000,6345
8148,2457,152,20,2533,6345,9761,13000,6345
8148,2460,107,38,2575,6345,9761,13000,6345
7781,2460,119,20,2553,6345,9761,13000,6345
8148,2460,151,0,2524,6345,9761,13000,6345
7751,2455,146,36,2590,6345,9761,13000,6345
8148,2462,120,21,2547,6345,9761,13000,6345
8148,2460,117,38,2581,6345,9761,13000,6345
7781,2460,156,20,2571,6345,9761,13000,6345
8148,2460,82,39,2521,6345,9761,13000,6345
7781,2460,77,20,2584,6345,9761,13000,6345
8148,2467,49,23,2539,6345,9761,13000,6345
8148,2462,94,38,2576,6345,9761,13000,6345
7781,2459,77,20,2557,6345,9761,13000,6345
8148,2460,93,41,2522,6345,9761,13000,6345
7781,2463,88,20,2581,6345,9761,13000,6345
8148,2457,45,24,2534,6345,9761,13000,6345
8148,2459,83,0,2572,6345,9761,13000,6345
7781,2457,38,21,2556,6345,9761,13000,6345
8148,2455,51,0,2528,6345,9761,13000,6345
7781,2459,50,19,2604,6345,9761,13000,6345
8148,2460,111,19,2548,6345,9761,13000,6345
8148,2467,73,40,2593,6345,9761,13000,6345
7781,2459,88,21,2564,6345,9761,13000,6345
8148,2460,115,0,2529,6345,9761,13000,6345
8117,2460,114,41,2574,6345,9761,13000,6345
7781,2453,81,20,2553,6345,9761,13000,6345
8148,2466,110,36,2522,6345,9761,13000,6345
7781,2454,154,19,2580,6345,9761,13000,6345
8148,2460,93,38,2530,6345,9761,13000,6345
8148,2464,103,0,2570,6345,9761,13000,6345
7781,2457,76,20,2556,6345,9761,13000,6345
8148,2457,110,37,2518,6345,9761,13000,6345
7781,2458,84,20,2574,6345,9761,13000,6345
8148,2463,128,43,2529,6345,9761,13000,6345
7781,2453,123,0,2605,6345,9761,13000,6345
8148,2458,111,23,2549,6345,9761,13000,6345
8148,2465,178,0,2514,6345,9761,13000,6345
7781,2458,144,18,2574,6345,9761,13000,6345
8148,2459,162,2,2528,6345,9761,13000,6345
7781,2462,154,36,2596,6345,9761,13000,6345
8148,2459,210,21,2543,6345,9761,13000,6345
8148,2460,154,33,2515,6345,9761,13000,6345
7781,2457,145,19,2566,6345,9761,13000,6345
8148,2459,149,0,2529,6345,9761,13000,6345
8117,2453,159,42,2568,6345,9761,13000,6345
7781,2460,119,20,2551,6345,9761,13000,6345
8148,2459,132,37,2515,6345,9761,13000,6345
7781,2453,176,24,2572,6345,9761,13000,6345
8148,2454,75,37,2537,6345,9761,13000,6345
8148,2458,120,0,2559,6345,9761,13000,6345
7781,2457,96,22,2569,6345,9761,13000,6345
8148,2462,129,44,2527,6345,9761,13000,6345
7781,2452,110,22,2593,6345,9761,13000,6345
8148,2462,159,43,2539,6345,9761,13000,6345
8148,2460,124,0,2582,6345,9761,13000,6345
7781,2459,105,21,2563,6345,9761,13000,6345
8148,2460,157,0,2523,6345,9761,13000,6345
7781,2455,125,20,2587,6345,9761,13000,6345
8148,2461,155,6,2541,6345,9761,13000,6345
8148,2467,145,39,2577,6345,9761,13000,6345
7781,2460,202,21,2560,6345,9761,13000,6345
8148,2456,156,36,2523,6345,9761,13000,6345
7781,2459,115,22,2579,6345,9761,13000,6345
8148,2461,109,0,2534,6345,9761,13000,6345
8148,2458,143,40,2573,6345,9761,13000,6345
7781,2457,105,18,2557,6345,9761,13000,6345
8148,2463,91,40,2515,6345,9761,13000,6345
7781,2453,130,21,2576,6345,9761,13000,6345
8148,2461,41,34,2533,6345,9761,13000,6345
8117,2457,90,0,2575,6345,9761,13000,6345
7781,2458,73,21,2559,6345,9761,13000,6345
8148,2466,124,42,2522,6345,9761,13000,6345
7781,2462,125,16,2586,6345,9761,13000,6345
8148,2458,180,20,2537,6345,9761,13000,6345
8148,2467,153,0,2570,6345,9761,13000,6345
7781,2463,108,22,2553,6345,9761,13000,6345
8148,2460,142,0,2520,6345,9761,13000,6345
7781,2456,87,18,2575,6345,9761,13000,6345
8148,2454,119,40,2534,6345,9761,13000,6345
8148,2457,84,39,2564,6345,9761,13000,6345
7781,2453,143,21,2548,6345,9761,13000,6345
8148,2457,107,33,2511,6345,9761,13000,6345
7781,2455,95,21,2604,6345,9761,13000,6345
8148,2462,94,20,2543,6345,9761,13000,6345
8148,2458,139,42,2582,6345,9761,13000,6345
7781,2459,130,19,2566,6345,9761,13000,6345
8148,2458,122,42,2530,6345,9761,13000,6345
7781,2455,166,23,2593,6345,9761,13000,6345
8148,2463,58,39,2539,6345,9761,13000,6345
8117,2454,90,0,2591,6345,9761,13000,6345
7781,2460,65,21,2571,6345,9761,13000,6345
8148,2460,101,41,2531,6345,9761,13000,6345
7781,2459,80,41,2605,6345,9761,13000,6345
8148,2458,167,19,2543,6345,9761,13000,6345
8148,2460,160,0,2587,6345,9761,13000,6345
7781,2451,137,17,2568,6345,9761,13000,6345
8148,2459,195,0,2523,6345,9761,13000,6345
7781,2456,188,20,2595,6345,9761,13000,6345
8148,2461,188,38,2546,6345,9761,13000,6345
8148,2453,158,40,2580,6345,9761,13000,6345
7781,2457,197,19,2565,6345,9761,13000,6345
8148,2459,150,34,2526,6345,9761,13000,6345
7781,2452,114,19,2588,6345,9761,13000,6345
8148,2459,96,19,2540,6345,9761,13000,6345
8148,2467,146,41,2576,6345,9761,13000,6345
7781,2462,149,20,2560,6345,9761,13000,6345
8148,2460,158,45,2523,6345,9761,13000,6345
7781,2460,180,20,2588,6345,9761,13000,6345
8148,2460,142,42,2538,6345,9761,13000,6345
8117,2457,179,0,2511,6345,9761,13000,6345
7781,2457,141,18,2561,6345,9761,13000,6345
8148,2457,175,44,2523,6345,9761,13000,6345
8148,2459,144,41,2556,6345,9761,13000,6345
7781,2456,201,20,2540,6345,9761,13000,6345
8148,2459,181,0,2523,6345,9761,13000,6345
7781,2459,152,24,2591,6345,9761,13000,6345
8148,2463,197,0,2537,6345,9761,13000,6345
8148,2456,185,42,2577,6345,9761,13000,6345
7781,2459,204,37,2555,6345,9761,13000,6345
8148,2464,163,40,2519,6345,9761,13000,6345
7781,2460,234,19,2580,6345,9761,13000,6345
8148,2461,187,34,2535,6345,9761,13000,6345
8148,2464,167,0,2574,6345,9761,13000,6345
7781,2460,161,19,2553,6345,9761,13000,6345
8148,2464,208,42,2522,6345,9761,13000,6345
7781,2459,188,19,2575,6345,9761,13000,6345
8148,2459,183,40,2530,6345,9761,13000,6345
7781,2459,181,0,2606,6345,9761,13000,6345
8148,2460,147,37,2548,6345,9761,13000,6345
8117,2457,170,0,2520,6345,9761,13000,6345
7781,2457,133,18,2586,6345,9761,13000,6345
8148,2459,188,17,2539,6345,9761,13000,6345
8148,2456,120,43,2573,6345,9761,13000,6345
7781,2458,171,20,2550,6345,9761,13000,6345
8148,2459,141,0,2519,6345,9761,13000,6345
7781,2459,103,43,2579,6345,9761,13000,6345
8148,2457,112,20,2536,6345,9761,13000,6345
8148,2458,159,42,2566,6345,9761,13000,6345
7781,2456,174,39,2552,6345,9761,13000,6345
8148,2464,114,38,2514,6345,9761,13000,6345
7781,2455,158,21,2568,6345,9761,13000,6345
8148,2460,91,39,2527,6345,9761,13000,6345
8148,2457,87,0,2561,6345,9761,13000,6345
7781,2458,67,20,2546,6345,9761,13000,6345
8148,2458,104,42,2516,6345,9761,13000,6345
7781,2459,131,18,2568,6345,9761,13000,6345
8148,2462,133,39,2543,6345,9761,13000,6345
8148,2464,164,0,2581,6345,9761,13000,6345
7781,2460,140,37,2557,6345,9761,13000,6345
8117,2464,197,0,2529,6345,9761,13000,6345
7781,2462,192,19,2606,6345,9761,13000,6345
8148,2463,217,20,2548,6345,9761,13000,6345
8117,2467,153,40,2522,6345,9780,13066,6345
7781,2454,225,257,2586,6345,9780,13066,6345
8148,2461,167,166,2539,6345,9780,13066,6345
8148,2456,145,323,2576,6345,9780,13066,6345
7781,2461,145,246,2557,6345,9780,13066,6345
8148,2463,194,307,2525,6345,9780,13066,6345
7781,2458,183,287,2578,6345,9780,13066,6345
8148,2459,189,307,2535,6345,9780,13066,6345
8148,2460,216,225,2574,6345,9780,13066,6345
7781,2462,182,290,2552,6345,9780,13066,6345
8148,2458,212,261,2519,6345,9780,13066,6345
7781,2460,207,272,2573,6345,9780,13066,6345
8148,2458,254,302,2531,6345,9780,13066,6345
7781,2457,204,266,2605,6345,9780,13066,6345
8148,2464,251,243,2550,6345,9780,13066,6345
8148,2458,235,166,2516,6345,9780,13066,6345
7781,2457,195,260,2573,6345,9780,13066,6345
8148,2459,224,187,2526,6345,9780,13066,6345
7781,2459,218,250,2593,6345,9780,13066,6345
8148,2463,236,210,2545,6345,9780,13066,6345
8148,2465,194,234,2586,6345,9780,13066,6345
7781,2464,234,190,2567,6345,9780,13066,6345
8148,2459,225,134,2527,6345,9780,13066,6345
7781,2457,182,247,2598,6345,9780,13066,6345
8148,2463,153,183,2547,6345,9780,13066,6345
8148,2460,201,241,2582,6345,9780,13066,6345
7781,2453,234,219,2589,6345,9780,13066,6345
8148,2454,204,267,2540,6345,9780,13066,6345
7781,2462,234,193,2619,6345,9780,13066,6345
8148,2465,212,242,2557,6345,9780,13066,6345
8148,2467,241,340,2607,6345,9780,13066,6345
7781,2457,236,277,2582,6345,9780,13066,6345
8148,2463,271,319,2535,6345,9780,13066,6345
7781,2462,226,241,2611,6345,9780,13066,6345
8148,2464,242,273,2555,6345,9780,13066,6345
8148,2460,253,181,2599,6345,9780,13066,6345
7781,2467,200,241,2580,6345,9780,13066,6345
8117,2461,210,195,2538,6345,9780,13066,6345
8148,2464,240,281,2577,6345,9780,13066,6345
7781,2464,270,233,2558,6345,9780,13066,6345
8148,2460,225,272,2525,6345,9780,13066,6345
7781,2453,272,250,2586,6345,9780,13066,6345
8148,2463,211,183,2539,6345,9780,13066,6345
8148,2458,232,294,2575,6345,9780,13066,6345
7781,2460,215,247,2559,6345,9780,13066,6345
8148,2467,253,286,2524,6345,9780,13066,6345
7781,2467,275,231,2578,6345,9780,13066,6345
8148,2463,215,277,2534,6345,9780,13066,6345
8148,2459,261,196,2571,6345,9780,13066,6345
7781,2456,217,227,2553,6345,9780,13066,6345
8148,2464,236,290,2516,6345,9780,13066,6345
7781,2462,217,222,2576,6345,9780,13066,6345
8148,2463,247,262,2532,6345,9780,13066,6345
8148,2459,217,215,2567,6345,9780,13066,6345
7781,2457,233,242,2549,6345,9780,13066,6345
8148,2460,265,181,2517,6345,9780,13066,6345
7781,2458,220,257,2571,6345,9780,13066,6345
8117,2459,252,250,2538,6345,9780,13066,6345
8148,2466,274,289,2596,6345,9780,13066,6345
7781,2459,295,218,2576,6345,9780,13066,6345
8148,2459,249,225,2533,6345,9780,13066,6345
7781,2460,290,165,2603,6345,9780,13066,6345
8148,2462,206,157,2549,6345,9780,13066,6345
8148,2460,216,189,2588,6345,9780,13066,6345
7781,2465,195,141,2574,6345,9780,13066,6345
8148,2463,214,176,2530,6345,9780,13066,6345
7781,2460,239,131,2601,6345,9780,13066,6345
8148,2461,187,210,2543,6345,9780,13066,6345
8148,2464,246,122,2587,6345,9780,13066,6345
7781,2456,195,163,2566,6345,9780,13066,6345
8148,2464,223,233,2533,6345,9780,13066,6345
7781,2459,206,159,2588,6345,9780,13066,6345
8148,2462,261,153,2542,6345,9780,13066,6345
8148,2458,193,98,2578,6345,9780,13066,6345
7781,2462,190,150,2565,6345,9780,13066,6345
8148,2462,223,65,2520,6345,9780,13066,6345
7781,2464,177,114,2583,6345,9780,13066,6345
8117,2459,181,126,2544,6345,9780,13066,6345
8148,2464,225,183,2589,6345,9780,13066,6345
7781,2457,273,121,2568,6345,9780,13066,6345
8148,2464,205,135,2532,6345,9780,13066,6345
7781,2464,219,92,2596,6345,9780,13066,6345
8148,2461,180,99,2545,6345,9780,13066,6345
8148,2460,209,145,2579,6345,9780,13066,6345
7781,2456,183,68,2566,6345,9780,13066,6345
8148,2460,214,93,2521,6345,9780,13066,6345
7781,2460,196,64,2588,6345,9780,13066,6345
8148,2463,179,103,2538,6345,9780,13066,6345
8148,2460,216,13,2578,6345,9780,13066,6345
7781,2458,181,69,2559,6345,9780,13066,6345
8148,2469,196,93,2539,6345,9780,13066,6345
7781,2462,184,25,2607,6345,9780,13066,6345
8148,2464,242,33,2554,6345,9780,13066,6345
8148,2466,185,36,2597,6345,9780,13066,6345
7781,2454,166,35,2580,6345,9780,13066,6345
8148,2461,191,0,2534,6345,9780,13066,6345
7781,2457,172,39,2602,6345,9780,13066,6345
8117,2455,151,20,2557,6345,9780,13066,6345
8148,2466,166,46,2525,6345,9780,13066,6345
7781,2460,223,24,2585,6345,9780,13066,6345
8148,2459,159,43,2538,6345,9780,13066,6345
8148,2463,187,7,2573,6345,9780,13066,6345
7781,2455,158,22,2558,6345,9780,13066,6345
8148,2460,185,45,2519,6345,9780,13066,6345
7781,2459,161,18,2578,6345,9780,13066,6345
8148,2458,177,45,2533,6345,9780,13066,6345
7781,2460,153,25,2605,6345,9780,13066,6345
8148,2465,108,18,2548,6345,9780,13066,6345
8148,2460,139,0,2518,6345,9780,13066,6345
7781,2464,92,20,2572,6345,9780,13066,6345
8148,2464,95,0,2526,6345,9780,13066,6345
7781,2460,88,36,2599,6345,9780,13066,6345
8148,2465,145,22,2546,6345,9780,13066,6345
8148,2461,105,27,2518,6345,9780,13066,6345
7781,2457,108,20,2569,6345,9780,13066,6345
8148,2457,143,0,2527,6345,9780,13066,6345
7781,2455,152,42,2593,6345,9780,13066,6345
8148,2462,149,41,2541,6345,9780,13066,6345
8148,2464,180,101,2584,6345,9780,13066,6345
7781,2460,246,74,2567,6345,9780,13066,6345
8148,2460,202,66,2527,6345,9780,13066,6345
7781,2466,205,61,2589,6345,9780,13066,6345
8117,2456,179,77,2567,6345,9780,13066,6345
8148,2460,202,98,2530,6345,9780,13066,6345
7781,2462,157,29,2600,6345,9780,13066,6345
8148,2461,209,50,2547,6345,9780,13066,6345
8148,2462,173,27,2584,6345,9780,13066,6345
7781,2465,135,56,2564,6345,9780,13066,6345
8148,2467,182,0,2525,6345,9780,13066,6345
7781,2464,148,28,2589,6345,9780,13066,6345
8148,2465,180,20,2544,6345,9780,13066,6345
8148,2460,159,43,2580,6345,9780,13066,6345
7781,2460,221,20,2565,6345,9780,13066,6345
8148,2467,178,35,2527,6345,9780,13066,6345
7781,2459,193,32,2592,6345,9780,13066,6345
8148,2465,167,0,2540,6345,9780,13066,6345
8148,2460,213,41,2574,6345,9780,13066,6345
7781,2457,195,22,2557,6345,9780,13066,6345
8148,2462,212,41,2519,6345,9780,13066,6345
7781,2463,275,20,2584,6345,9780,13066,6345
8148,2460,175,38,2536,6345,9780,13066,6345
8148,2466,207,0,2567,6345,9780,13066,6345
7781,2460,179,18,2553,6345,9780,13066,6345
8148,2460,217,39,2518,6345,9780,13066,6345
7781,2458,177,19,2580,6345,9780,13066,6345
8148,2464,184,42,2533,6345,9780,13066,6345
8148,2459,190,0,2567,6345,9780,13066,6345
7781,2465,149,43,2550,6345,9780,13066,6345
8148,2460,211,0,2519,6345,9780,13066,6345
7781,2460,193,22,2568,6345,9780,13066,6345
8148,2462,227,43,2531,6345,9780,13066,6345
8148,2463,193,43,2559,6345,9780,13066,6345
7781,2460,251,20,2547,6345,9780,13066,6345
8148,2464,210,28,2520,6345,9780,13066,6345
7781,2462,146,21,2590,6345,9780,13066,6345
8148,2465,194,0,2546,6345,9780,13066,6345
8148,2454,189,40,2580,6345,9780,13066,6345
7781,2459,186,21,2561,6345,9780,13066,6345
8148,2460,173,46,2525,6345,9780,13066,6345
7781,2460,237,21,2589,6345,9780,13066,6345
8148,2462,187,36,2543,6345,9780,13066,6345
8148,2460,188,5,2578,6345,9780,13066,6345
7781,2461,159,18,2561,6345,9780,13066,6345
8148,2467,205,41,2524,6345,9780,13066,6345
7781,2462,180,21,2577,6345,9780,13066,6345
8148,2458,179,39,2534,6345,9780,13066,6345
7781,2459,193,0,2617,6345,9780,13066,6345
8148,2462,145,39,2556,6345,9780,13066,6345
8148,2460,191,0,2526,6345,9780,13066,6345
7781,2464,176,25,2577,6345,9780,13066,6345
8148,2465,235,48,2538,6345,9780,13066,6345
7781,2459,208,48,2609,6345,9780,13066,6345
8148,2468,284,63,2549,6345,9780,13066,6345
8148,2462,280,10,2591,6345,9780,13066,6345
7781,2458,254,125,2570,6345,9780,13066,6345
8148,2457,295,41,2533,6345,9780,13066,6345
7781,2456,284,100,2596,6345,9780,13066,6345
8148,2464,310,71,2547,6345,9780,13066,6345
8148,2459,260,76,2587,6345,9780,13066,6345
7781,2457,323,71,2567,6345,9780,13066,6345
8148,2463,298,12,2527,6345,9780,13066,6345
7781,2464,270,121,2592,6345,9780,13066,6345
8148,2461,252,58,2545,6345,9780,13066,6345
8148,2462,297,99,2579,6345,9780,13066,6345
7781,2461,297,86,2564,6345,9780,13066,6345
8148,2460,292,94,2523,6345,9780,13066,6345
7781,2459,325,49,2618,6345,9780,13066,6345
8148,2463,294,108,2555,6345,9780,13066,6345
8148,2467,337,109,2605,6345,9780,13066,6345
7781,2462,334,99,2580,6345,9780,13066,6345
8148,2459,364,133,2535,6345,9780,13066,6345
7781,2467,332,113,2613,6345,9780,13066,6345
8148,2460,364,112,2551,6345,9780,13066,6345
8148,2466,376,47,2597,6345,9780,13066,6345
7781,2458,331,147,2578,6345,9780,13066,6345
8148,2467,354,119,2535,6345,9780,13066,6345
7781,2456,371,125,2604,6345,9780,13066,6345
8148,2455,431,158,2554,6345,9780,13066,6345
8148,2466,379,203,2596,6345,9780,13066,6345
7781,2456,465,212,2572,6345,9780,13066,6345
8148,2453,477,168,2528,6345,9780,13066,6345
7781,2464,487,270,2603,6345,9780,13066,6345
8148,2465,485,234,2547,6345,9780,13066,6345
8148,2460,523,266,2582,6345,9780,13066,6345
7781,2460,540,201,2569,6345,9780,13066,6345
8148,2453,472,211,2526,6345,9780,13066,6345
7781,2460,476,151,2594,6345,9780,13066,6345
8148,2464,437,159,2546,6345,9780,13066,6345
8148,2464,471,209,2579,6345,9780,13066,6345
7781,2456,456,170,2566,6345,9780,13066,6345
8148,2466,509,214,2524,6345,9780,13066,6345
7781,2461,484,172,2591,6345,9780,13066,6345
8148,2463,489,194,2532,6345,9780,13066,6345
8148,2459,514,99,2578,6345,9780,13066,6345
7781,2467,471,147,2558,6345,9780,13066,6345
8148,2458,480,174,2521,6345,9780,13066,6345
7781,2459,476,112,2582,6345,9780,13066,6345
8148,2460,526,116,2533,6345,9780,13066,6345
8148,2453,452,102,2601,6345,9780,13066,6345
7781,2458,492,135,2580,6345,9780,13066,6345
8148,2468,493,58,2533,6345,9780,13066,6345
7781,2461,458,135,2611,6345,9780,13066,6345
8148,2460,458,145,2551,6345,9780,13066,6345
8148,2459,492,194,2593,6345,9780,13066,6345
7781,2455,533,150,2573,6345,9780,13066,6345
8148,2466,467,169,2533,6345,9780,13066,6345
7781,2462,520,166,2598,6345,9780,13066,6345
8148,2461,447,179,2549,6345,9780,13066,6345
8148,2456,481,240,2585,6345,9780,13066,6345
7781,2457,460,209,2567,6345,9780,13066,6345
8148,2469,515,271,2530,6345,9780,13066,6345
7781,2456,566,272,2593,6345,9780,13066,6345
8148,2461,506,335,2550,6345,9780,13066,6345
8148,2461,568,268,2579,6345,9780,13066,6345
7781,2459,543,309,2556,6345,9780,13066,6345
8148,2453,573,359,2523,6345,9780,13066,6345
7781,2464,558,282,2594,6345,9780,13066,6345
8148,2462,609,275,2538,6345,9780,13066,6345
8148,2461,542,206,2575,6345,9780,13066,6345
7781,2453,529,259,2556,6345,9780,13066,6345
8148,2458,540,174,2524,6345,9780,13066,6345
7781,2464,495,221,2581,6345,9780,13066,6345
8148,2457,520,275,2540,6345,9780,13066,6345
8148,2459,538,297,2571,6345,9780,13066,6345
7781,2462,613,272,2558,6345,9780,13066,6345
8148,2461,576,288,2520,6345,9780,13066,6345
7781,2457,594,298,2579,6345,9780,13066,6345
8148,2461,569,314,2535,6345,9780,13066,6345
8148,2460,624,351,2564,6345,9780,13066,6345
7781,2457,602,299,2551,6345,9780,13066,6345
8148,2456,606,298,2525,6345,9780,13066,6345
7781,2457,636,226,2601,6345,9780,13066,6345
8148,2458,524,261,2543,6345,9780,13066,6345
8148,2460,565,175,2592,6345,9780,13066,6345
7781,2460,531,193,2570,6345,9780,13066,6345
8148,2459,567,251,2528,6345,9780,13066,6345
7781,2456,555,204,2597,6345,9780,13066,6345
8148,2461,605,215,2541,6345,9780,13066,6345
8148,2453,576,161,2582,6345,9780,13066,6345
7781,2457,533,250,2564,6345,9780,13066,6345
8148,2460,579,170,2526,6345,9780,13066,6345
7781,2458,546,216,2589,6345,9780,13066,6345
8148,2458,568,252,2545,6345,9780,13066,6345
8148,2453,559,264,2581,6345,9780,13066,6345
7781,2460,629,239,2561,6345,9780,13066,6345
8148,2460,601,228,2525,6345,9780,13066,6345
7781,2460,584,301,2588,6345,9780,13066,6345
8148,2460,573,202,2539,6345,9780,13066,6345
8148,2456,616,298,2570,6345,9780,13066,6345
7781,2457,577,281,2556,6345,9780,13066,6345
8148,2459,570,275,2521,6345,9780,13066,6345
7781,2459,626,248,2582,6345,9780,13066,6345
8148,2465,540,252,2533,6345,9780,13066,6345
8148,2459,568,229,2569,6345,9780,13066,6345
7781,2457,551,247,2553,6345,9780,13066,6345
8148,2467,606,292,2519,6345,9780,13066,6345
7781,2460,571,252,2579,6345,9780,13066,6345
8148,2461,603,268,2533,6345,9780,13066,6345
8148,2462,579,164,2563,6345,9780,13066,6345
7781,2459,529,232,2548,6345,9780,13066,6345
8148,2462,569,166,2514,6345,9780,13066,6345
7781,2461,535,194,2571,6345,9780,13066,6345
8148,2459,598,260,2543,6345,9780,13066,6345
8148,2468,545,243,2581,6345,9780,13066,6345
7781,2460,616,224,2564,6345,9780,13066,6345
8148,2459,596,169,2525,6345,9780,13066,6345
7781,2459,561,262,2591,6345,9780,13066,6345
8148,2462,605,162,2543,6345,9780,13066,6345
8148,2455,595,238,2583,6345,9780,13066,6345
7781,2459,595,192,2554,6345,9780,13066,6345
8148,2462,570,217,2525,6345,9780,13066,6345
7781,2460,609,153,2587,6345,9780,13066,6345
8148,2461,570,105,2533,6345,9780,13066,6345
8148,2458,539,211,2575,6345,9780,13066,6345
7781,2460,540,159,2559,6345,9780,13066,6345
8148,2467,581,204,2518,6345,9780,13066,6345
7781,2460,555,169,2581,6345,9780,13066,6345
8148,2463,553,179,2535,6345,9780,13066,6345
8148,2457,559,63,2570,6345,9780,13066,6345
7781,2462,506,120,2550,6345,9780,13066,6345
8148,2460,523,82,2520,6345,9780,13066,6345
7781,2467,503,92,2578,6345,9780,13066,6345
8148,2456,540,149,2528,6345,9780,13066,6345
7781,2463,494,111,2613,6345,9780,13066,6345
8148,2457,554,116,2550,6345,9780,13066,6345
8148,2459,550,75,2520,6345,9780,13066,6345
7781,2459,513,149,2566,6345,9780,13066,6345
8148,2458,559,95,2524,6345,9780,13066,6345
7781,2467,552,166,2600,6345,9780,13066,6345
8148,2465,580,122,2548,6345,9780,13066,6345
8148,2459,519,128,2516,6345,9780,13066,6345
7781,2459,563,88,2570,6345,9780,13066,6345
8148,2456,528,17,2525,6345,9780,13066,6345
7781,2459,497,135,2596,6345,9780,13066,6345
8148,2462,477,81,2556,6345,9780,13066,6345
8148,2461,528,124,2610,6345,9780,13066,6345
7781,2459,558,125,2587,6345,9780,13066,6345
8148,2461,531,158,2543,6345,9780,13066,6345
7781,2463,574,94,2618,6345,9780,13066,6345
8148,2459,541,159,2557,6345,9780,13066,6345
8148,2460,568,210,2602,6345,9780,13066,6345
7781,2460,549,152,2583,6345,9780,13066,6345
8148,2464,586,197,2536,6345,9780,13066,6345
7781,2460,537,152,2614,6345,9780,13066,6345
8148,2465,560,172,2549,6345,9780,13066,6345
8148,2464,576,116,2599,6345,9780,13066,6345
7781,2460,549,202,2579,6345,9780,13066,6345
8148,2464,572,188,2532,6345,9780,13066,6345
7781,2465,590,238,2602,6345,9780,13066,6345
8148,2462,653,197,2550,6345,9780,13066,6345
8148,2460,576,188,2587,6345,9780,13066,6345
7781,2455,621,171,2570,6345,9780,13066,6345
8148,2461,603,103,2529,6345,9780,13066,6345
7781,2460,576,162,2597,6345,9780,13066,6345
8148,2462,541,127,2545,6345,9780,13066,6345
8148,2464,551,131,2582,6345,9780,13066,6345
7781,2456,562,85,2570,6345,9780,13066,6345
8148,2467,501,122,2528,6345,9780,13066,6345
7781,2466,533,130,2592,6345,9780,13066,6345
8148,2463,505,152,2541,6345,9780,13066,6345
8148,2460,554,239,2577,6345,9780,13066,6345
7781,2455,558,236,2563,6345,9780,13066,6345
8148,2464,609,287,2523,6345,9780,13066,6345
7781,2458,596,265,2587,6345,9780,13066,6345
8148,2458,558,322,2533,6345,9780,13066,6345
8148,2461,609,256,2576,6345,9780,13066,6345
7781,2460,563,306,2581,6345,9780,13066,6345
8148,2460,582,377,2531,6345,9780,13066,6345
7781,2458,584,325,2612,6345,9780,13066,6345
8148,2460,653,362,2551,6345,9780,13066,6345
8148,2455,614,372,2595,6345,9780,13066,6345
7781,2463,631,397,2574,6345,9780,13066,6345
8148,2464,663,319,2534,6345,9780,13066,6345
7781,2460,660,394,2610,6345,9780,13066,6345
8148,2458,625,360,2547,6345,9780,13066,6345
8148,2464,644,400,2588,6345,9780,13066,6345
7781,2459,682,341,2565,6345,9780,13066,6345
8148,2467,620,357,2525,6345,9780,13066,6345
7781,2467,668,352,2593,6345,9780,13066,6345
8148,2464,622,352,2542,6345,9780,13066,6345
8148,2460,661,410,2586,6345,9780,13066,6345
7781,2462,644,355,2564,6345,9780,13066,6345
8148,2464,690,389,2522,6345,9780,13066,6345
7781,2457,716,332,2592,6345,9780,13066,6345
8148,2458,645,374,2537,6345,9780,13066,6345
8148,2457,679,281,2582,6345,9780,13066,6345
7781,2453,638,295,2558,6345,9780,13066,6345
8148,2464,658,355,2520,6345,9780,13066,6345
7781,2456,638,297,2583,6345,9780,13066,6345
8148,2461,693,316,2537,6345,9780,13066,6345
8148,2453,664,268,2570,6345,9780,13066,6345
7781,2452,639,376,2555,6345,9780,13066,6345
8148,2458,700,306,2515,6345,9780,13066,6345
7781,2459,671,325,2579,6345,9780,13066,6345
8148,2458,702,378,2535,6345,9780,13066,6345
8117,2458,700,359,2581,6345,9776,13080,6345
7781,2456,747,566,2564,6345,9776,13080,6345
8148,2460,665,571,2522,6345,9776,13080,6345
7781,2458,669,544,2619,6345,9776,13080,6345
8148,2462,646,574,2557,6345,9776,13080,6345
8148,2460,674,646,2603,6345,9776,13080,6345
7781,2462,659,606,2574,6345,9776,13080,6345
8148,2465,703,664,2533,6345,9776,13080,6345
7781,2455,696,586,2617,6345,9776,13080,6345
8148,2461,675,678,2551,6345,9776,13080,6345
8148,2457,730,582,2596,6345,9776,13080,6345
7781,2460,692,631,2579,6345,9776,13080,6345
8148,2460,723,668,2531,6345,9776,13080,6345
7781,2455,669,592,2610,6345,9776,13080,6345
8148,2462,717,553,2547,6345,9776,13080,6345
8148,2461,660,469,2594,6345,9776,13080,6345
7781,2460,603,583,2569,6345,9776,13080,6345
8148,2466,658,497,2530,6345,9776,13080,6345
7781,2463,665,583,2598,6345,9776,13080,6345
8148,2458,677,641,2546,6345,9776,13080,6345
8148,2463,691,671,2584,6345,9776,13080,6345
7781,2456,777,650,2568,6345,9776,13080,6345
8148,2460,742,635,2524,6345,9776,13080,6345
7781,2453,726,659,2588,6345,9776,13080,6345
8148,2460,711,622,2540,6345,9776,13080,6345
8148,2456,734,667,2581,6345,9776,13080,6345
7781,2458,706,621,2563,6345,9776,13080,6345
8148,2462,686,617,2524,6345,9776,13080,6345
7781,2457,674,557,2591,6345,9776,13080,6345
8148,2461,616,590,2540,6345,9776,13080,6345
8148,2457,667,541,2577,6345,9776,13080,6345
7781,2460,631,560,2554,6345,9776,13080,6345
8148,2463,670,614,2520,6345,9776,13080,6345
7781,2459,663,583,2584,6345,9776,13080,6345
8148,2463,728,592,2534,6345,9776,13080,6345
8148,2459,706,528,2598,6345,9776,13080,6345
7781,2460,646,604,2571,6345,9776,13080,6345
8148,2467,674,505,2529,6345,9776,13080,6345
7781,2460,659,512,2607,6345,9776,13080,6345
8148,2463,654,483,2547,6345,9776,13080,6345
8148,2459,590,515,2594,6345,9776,13080,6345
7781,2460,653,472,2572,6345,9776,13080,6345
8148,2452,622,410,2531,6345,9776,13080,6345
7781,2460,599,536,2601,6345,9776,13080,6345
8148,2457,609,503,2547,6345,9776,13080,6345
8148,2462,667,567,2583,6345,9776,13080,6345
7781,2459,664,559,2568,6345,9776,13080,6345
8148,2464,653,563,2525,6345,9776,13080,6345
7781,2458,697,512,2593,6345,9776,13080,6345
8148,2463,599,511,2541,6345,9776,13080,6345
8148,2457,603,494,2584,6345,9776,13080,6345
7781,2457,569,472,2567,6345,9776,13080,6345
8148,2464,607,523,2527,6345,9776,13080,6345
7781,2462,596,488,2589,6345,9776,13080,6345
8148,2460,620,468,2541,6345,9776,13080,6345
8148,2463,627,433,2578,6345,9776,13080,6345
7781,2459,602,518,2558,6345,9776,13080,6345
8148,2463,644,477,2524,6345,9776,13080,6345
7781,2461,616,484,2580,6345,9776,13080,6345
8148,2460,648,469,2536,6345,9776,13080,6345
8148,2460,587,474,2571,6345,9776,13080,6345
7781,2459,640,442,2561,6345,9776,13080,6345
8148,2459,613,372,2515,6345,9776,13080,6345
7781,2455,564,473,2581,6345,9776,13080,6345
8148,2461,572,455,2534,6345,9776,13080,6345
8148,2459,615,504,2570,6345,9776,13080,6345
7781,2453,653,462,2552,6345,9776,13080,6345
8148,2459,624,522,2532,6345,9776,13080,6345
7781,2462,707,497,2605,6345,9776,13080,6345
8148,2463,623,500,2545,6345,9776,13080,6345
8148,2464,642,552,2589,6345,9776,13080,6345
7781,2459,622,488,2569,6345,9776,13080,6345
8148,2461,644,521,2525,6345,9776,13080,6345
7781,2459,618,451,2593,6345,9776,13080,6345
8148,2462,582,453,2543,6345,9776,13080,6345
8148,2458,596,362,2581,6345,9776,13080,6345
7781,2460,548,411,2556,6345,9776,13080,6345
8148,2469,555,413,2525,6345,9776,13080,6345
7781,2460,542,418,2594,6345,9776,13080,6345
8148,2463,625,472,2544,6345,9776,13080,6345
8148,2460,563,504,2580,6345,9776,13080,6345
7781,2451,589,519,2564,6345,9776,13080,6345
8148,2466,610,475,2522,6345,9776,13080,6345
7781,2458,562,561,2583,6345,9776,13080,6345
8148,2460,576,530,2533,6345,9776,13080,6345
8148,2462,606,630,2571,6345,9776,13080,6345
7781,2463,668,602,2553,6345,9776,13080,6345
8148,2460,601,629,2519,6345,9776,13080,6345
7781,2464,660,615,2580,6345,9776,13080,6345
8148,2456,595,546,2536,6345,9776,13080,6345
8148,2455,617,655,2568,6345,9776,13080,6345
7781,2460,591,560,2547,6345,9776,13080,6345
8148,2453,604,595,2518,6345,9776,13080,6345
7781,2459,612,524,2575,6345,9776,13080,6345
8148,2455,525,553,2532,6345,9776,13080,6345
8148,2458,563,471,2562,6345,9776,13080,6345
7781,2460,515,507,2550,6345,9776,13080,6345
8148,2464,547,566,2508,6345,9776,13080,6345
7781,2458,544,517,2572,6345,9776,13080,6345
8148,2457,609,575,2543,6345,9776,13080,6345
8148,2462,574,541,2581,6345,9776,13080,6345
7781,2453,587,604,2564,6345,9776,13080,6345
8148,2453,608,501,2525,6345,9776,13080,6345
7781,2459,569,558,2593,6345,9776,13080,6345
8148,2462,575,573,2542,6345,9776,13080,6345
8148,2467,591,575,2583,6345,9776,13080,6345
7781,2453,639,527,2558,6345,9776,13080,6345
8148,2465,579,526,2525,6345,9776,13080,6345
7781,2456,610,520,2586,6345,9776,13080,6345
8148,2458,564,455,2538,6345,9776,13080,6345
8148,2459,586,532,2574,6345,9776,13080,6345
7781,2459,571,475,2561,6345,9776,13080,6345
8148,2459,584,508,2520,6345,9776,13080,6345
7781,2463,624,433,2580,6345,9776,13080,6345
8148,2462,524,439,2532,6345,9776,13080,6345
8148,2459,547,378,2569,6345,9776,13080,6345
7781,2450,513,425,2551,6345,9776,13080,6345
8148,2469,541,478,2522,6345,9776,13080,6345
7781,2459,535,445,2574,6345,9776,13080,6345
8148,2456,578,511,2532,6345,9776,13080,6345
8148,2453,585,417,2565,6345,9776,13080,6345
7781,2460,571,548,2547,6345,9776,13080,6345
8148,2460,625,470,2517,6345,9776,13080,6345
7781,2462,594,510,2572,6345,9776,13080,6345
8148,2462,596,535,2527,6345,9776,13080,6345
8148,2460,579,526,2562,6345,9776,13080,6345
7781,2457,642,491,2542,6345,9776,13080,6345
8148,2455,577,450,2513,6345,9776,13080,6345
7781,2464,559,500,2561,6345,9776,13080,6345
8148,2463,581,416,2520,6345,9776,13080,6345
7781,2460,569,514,2591,6345,9776,13080,6345
8148,2462,555,499,2559,6345,9776,13080,6345
8148,2462,561,511,2524,6345,9776,13080,6345
7781,2464,622,478,2583,6345,9776,13080,6345
8148,2457,564,507,2538,6345,9776,13080,6345
7781,2457,581,498,2620,6345,9776,13080,6345
8148,2463,559,513,2557,6345,9776,13080,6345
8148,2462,618,560,2523,6345,9776,13080,6345
7781,2466,591,523,2582,6345,9776,13080,6345
8148,2465,614,537,2533,6345,9776,13080,6345
7781,2460,613,434,2614,6345,9776,13080,6345
8148,2467,561,518,2550,6345,9776,13080,6345
8148,2460,588,413,2597,6345,9776,13080,6345
7781,2467,538,413,2577,6345,9776,13080,6345
8148,2460,568,467,2533,6345,9776,13080,6345
7781,2458,519,442,2607,6345,9776,13080,6345
8148,2464,571,400,2549,6345,9776,13080,6345
8148,2464,538,352,2586,6345,9776,13080,6345
7781,2453,508,475,2571,6345,9776,13080,6345
8148,2462,559,393,2524,6345,9776,13080,6345
7781,2459,559,480,2598,6345,9776,13080,6345
8148,2464,559,454,2544,6345,9776,13080,6345
8148,2459,547,491,2584,6345,9776,13080,6345
7781,2457,624,461,2569,6345,9776,13080,6345
8148,2459,556,396,2525,6345,9776,13080,6345
7781,2460,546,452,2597,6345,9776,13080,6345
8148,2464,520,414,2545,6345,9776,13080,6345
8148,2459,550,438,2578,6345,9776,13080,6345
7781,2458,516,412,2562,6345,9776,13080,6345
8148,2463,513,419,2519,6345,9776,13080,6345
7781,2464,528,393,2583,6345,9776,13080,6345
8148,2460,490,431,2536,6345,9776,13080,6345
8148,2460,512,377,2577,6345,9776,13080,6345
7781,2460,486,376,2578,6345,9776,13080,6345
8148,2464,522,428,2531,6345,9776,13080,6345
7781,2454,476,369,2613,6345,9776,13080,6345
8148,2462,517,363,2554,6345,9776,13080,6345
8148,2467,500,297,2600,6345,9776,13080,6345
7781,2460,464,404,2579,6345,9776,13080,6345
8148,2464,513,338,2532,6345,9776,13080,6345
7781,2460,512,375,2609,6345,9776,13080,6345
8148,2457,557,399,2552,6345,9776,13080,6345
8148,2465,503,428,2594,6345,9776,13080,6345
7781,2465,574,394,2574,6345,9776,13080,6345
8148,2464,547,340,2533,6345,9776,13080,6345
7781,2463,519,434,2599,6345,9776,13080,6345
8148,2467,510,388,2544,6345,9776,13080,6345
8148,2467,533,413,2588,6345,9776,13080,6345
7781,2459,526,388,2568,6345,9776,13080,6345
8148,2460,502,392,2530,6345,9776,13080,6345
7781,2463,527,366,2591,6345,9776,13080,6345
8148,2462,515,401,2543,6345,9776,13080,6345
8148,2460,546,446,2583,6345,9776,13080,6345
7781,2453,558,406,2566,6345,9776,13080,6345
8148,2464,615,428,2527,6345,9776,13080,6345
7781,2452,607,405,2593,6345,9776,13080,6345
8148,2461,609,363,2540,6345,9776,13080,6345
8148,2460,597,267,2578,6345,9776,13080,6345
7781,2460,525,311,2559,6345,9776,13080,6345
8148,2464,543,225,2523,6345,9776,13080,6345
7781,2462,508,205,2587,6345,9776,13080,6345
8148,2458,555,205,2536,6345,9776,13080,6345
8148,2464,487,221,2569,6345,9776,13080,6345
7781,2456,551,220,2557,6345,9776,13080,6345
8148,2460,552,187,2520,6345,9776,13080,6345
7781,2460,523,311,2604,6345,9776,13080,6345
8148,2464,546,326,2557,6345,9776,13080,6345
8148,2464,602,411,2591,6345,9776,13080,6345
7781,2455,644,411,2571,6345,9776,13080,6345
8148,2468,595,459,2535,6345,9776,13080,6345
7781,2460,666,456,2604,6345,9776,13080,6345
8148,2465,587,456,2544,6345,9776,13080,6345
8148,2458,593,478,2584,6345,9776,13080,6345
7781,2459,592,475,2568,6345,9776,13080,6345
8148,2461,624,558,2529,6345,9776,13080,6345
7781,2462,622,514,2596,6345,9776,13080,6345
8148,2459,589,547,2539,6345,9776,13080,6345
8148,2457,617,468,2578,6345,9776,13080,6345
7781,2453,581,518,2566,6345,9776,13080,6345
8148,2467,602,553,2527,6345,9776,13080,6345
7781,2457,601,511,2588,6345,9776,13080,6345
8148,2459,665,533,2540,6345,9776,13080,6345
8148,2458,619,552,2579,6345,9776,13080,6345
7781,2466,660,571,2561,6345,9776,13080,6345
8148,2460,687,536,2520,6345,9776,13080,6345
7781,2460,664,634,2583,6345,9776,13080,6345
8148,2460,687,621,2534,6345,9776,13080,6345
8148,2462,714,667,2572,6345,9776,13080,6345
7781,2457,771,629,2554,6345,9776,13080,6345
8148,2460,712,652,2518,6345,9776,13080,6345
7781,2458,766,634,2580,6345,9776,13080,6345
8148,2462,699,632,2533,6345,9776,13080,6345
8148,2460,731,667,2564,6345,9776,13080,6345
7781,2457,703,613,2552,6345,9776,13080,6345
8148,2467,719,645,2515,6345,9776,13080,6345
7781,2459,739,601,2573,6345,9776,13080,6345
8148,2458,661,623,2530,6345,9776,13080,6345
8148,2462,692,558,2585,6345,9776,13080,6345
7781,2459,650,583,2567,6345,9776,13080,6345
8148,2462,676,641,2531,6345,9776,13080,6345
7781,2471,667,593,2597,6345,9776,13080,6345
8148,2460,732,646,2539,6345,9776,13080,6345
8148,2467,688,583,2579,6345,9776,13080,6345
7781,2457,667,682,2563,6345,9776,13080,6345
8148,2467,726,604,2522,6345,9776,13080,6345
7781,2460,686,647,2589,6345,9776,13080,6345
8148,2463,703,725,2535,6345,9776,13080,6345
8148,2460,711,720,2574,6345,9776,13080,6345
7781,2458,766,691,2559,6345,9776,13080,6345
8148,2466,716,697,2525,6345,9776,13080,6345
7781,2460,743,726,2581,6345,9776,13080,6345
8148,2458,714,667,2534,6345,9776,13080,6345
8148,2457,764,775,2572,6345,9776,13080,6345
7781,2461,742,724,2556,6345,9776,13080,6345
8148,2463,768,745,2516,6345,9776,13080,6345
7781,2464,810,694,2580,6345,9776,13080,6345
8148,2461,716,702,2534,6345,9776,13080,6345
8148,2460,743,650,2571,6345,9776,13080,6345
7781,2457,702,669,2551,6345,9776,13080,6345
8148,2464,743,730,2518,6345,9776,13080,6345
7781,2460,721,691,2572,6345,9776,13080,6345
8148,2459,751,730,2526,6345,9776,13080,6345
8148,2457,742,643,2565,6345,9776,13080,6345
7781,2454,712,709,2548,6345,9776,13080,6345
8148,2460,755,637,2511,6345,9776,13080,6345
7781,2462,726,693,2569,6345,9776,13080,6345
8148,2457,755,748,2528,6345,9776,13080,6345
8148,2451,738,724,2559,6345,9776,13080,6345
7781,2459,783,676,2544,6345,9776,13080,6345
8148,2463,734,609,2523,6345,9776,13080,6345
7781,2459,691,689,2584,6345,9776,13080,6345
8148,2462,737,610,2542,6345,9776,13080,6345
8148,2460,734,682,2575,6345,9776,13080,6345
7781,2459,711,676,2559,6345,9776,13080,6345
8148,2466,719,696,2517,6345,9776,13080,6345
7781,2459,770,655,2586,6345,9776,13080,6345
8148,2462,722,645,2536,6345,9776,13080,6345
8148,2455,726,650,2571,6345,9776,13080,6345
7781,2453,700,657,2561,6345,9776,13080,6345
8148,2462,752,697,2525,6345,9776,13080,6345
7781,2460,728,663,2580,6345,9776,13080,6345
8148,2459,749,696,2535,6345,9776,13080,6345
7781,2460,757,602,2611,6345,9776,13080,6345
8148,2459,712,677,2548,6345,9776,13080,6345
8148,2463,741,606,2516,6345,9776,13080,6345
7781,2457,692,622,2576,6345,9776,13080,6345
8148,2458,715,651,2528,6345,9776,13080,6345
7781,2462,664,638,2604,6345,9776,13080,6345
8148,2465,725,622,2548,6345,9776,13080,6345
8148,2460,698,561,2583,6345,9776,13080,6345
7781,2453,665,671,2568,6345,9776,13080,6345
8148,2460,721,597,2526,6345,9776,13080,6345
7781,2461,730,709,2592,6345,9776,13080,6345
8148,2458,741,665,2542,6345,9776,13080,6345
8148,2459,714,703,2581,6345,9776,13080,6345
7781,2460,788,682,2562,6345,9776,13080,6345
8148,2463,737,621,2524,6345,9776,13080,6345
7781,2460,707,709,2594,6345,9776,13080,6345
8148,2460,683,645,2539,6345,9776,13080,6345
8148,2464,712,687,2580,6345,9776,13080,6345
7781,2455,697,676,2557,6345,9776,13080,6345
8148,2467,673,668,2534,6345,9776,13080,6345
7781,2459,693,590,2619,6345,9776,13080,6345
8148,2465,653,666,2555,6345,9776,13080,6345
8148,2459,703,641,2601,6345,9776,13080,6345
7781,2464,699,657,2575,6345,9776,13080,6345
8148,2464,753,742,2532,6345,9776,13080,6345
7781,2460,734,715,2609,6345,9776,13080,6345
8148,2458,791,713,2551,6345,9776,13080,6345
8148,2464,776,639,2597,6345,9776,13080,6345
7781,2458,734,720,2573,6345,9776,13080,6345
8148,2464,757,625,2530,6345,9776,13080,6345
7781,2457,731,617,2600,6345,9776,13080,6345
8148,2459,752,628,2546,6345,9776,13080,6345
8148,2460,696,651,2592,6345,9776,13080,6345
7781,2460,743,607,2568,6345,9776,13080,6345
8148,2463,684,527,2528,6345,9776,13080,6345
7781,2467,666,619,2597,6345,9776,13080,6345
8148,2461,645,596,2543,6345,9776,13080,6345
8148,2460,692,696,2587,6345,9776,13080,6345
7781,2467,711,672,2565,6345,9776,13080,6345
8148,2464,696,723,2525,6345,9776,13080,6345
7781,2460,733,740,2590,6345,9776,13080,6345
8148,2461,702,746,2538,6345,9776,13080,6345
8148,2460,741,847,2575,6345,9776,13080,6345
7781,2462,740,817,2567,6345,9776,13080,6345
8148,2459,808,877,2524,6345,9776,13080,6345
7781,2459,788,885,2583,6345,9776,13080,6345
8148,2463,803,883,2543,6345,9776,13080,6345
8148,2464,822,810,2573,6345,9776,13080,6345
7781,2455,772,874,2559,6345,9776,13080,6345
8148,2467,789,858,2521,6345,9776,13080,6345
7781,2462,772,847,2584,6345,9776,13080,6345
8148,2460,841,857,2553,6345,9776,13080,6345
8148,2467,769,849,2595,6345,9776,13080,6345
7781,2459,803,860,2572,6345,9776,13080,6345
8148,2456,805,793,2528,6345,9776,13080,6345
7781,2451,752,878,2600,6345,9776,13080,6345
8148,2463,754,843,2551,6345,9776,13080,6345
8148,2460,776,885,2588,6345,9776,13080,6345
7781,2458,803,851,2567,6345,9776,13080,6345
8148,2457,743,855,2533,6345,9776,13080,6345
7781,2459,807,837,2598,6345,9776,13080,6345
8148,2461,736,832,2540,6345,9776,13080,6345
8148,2462,766,892,2583,6345,9776,13080,6345
7781,2465,752,849,2559,6345,9776,13080,6345
8148,2464,790,893,2525,6345,9776,13080,6345
7781,2462,813,856,2592,6345,9776,13080,6345
8148,2463,746,905,2542,6345,9776,13080,6345
8148,2462,791,785,2575,6345,9776,13080,6345
7781,2456,750,827,2562,6345,9776,13080,6345
8148,2464,767,898,2523,6345,9776,13080,6345
7781,2460,765,840,2590,6345,9776,13080,6345
8148,2462,821,850,2539,6345,9776,13080,6345
8148,2460,774,849,2571,6345,9776,13080,6345
7781,2459,796,891,2555,6345,9776,13080,6345
8148,2460,823,833,2519,6345,9776,13080,6345
7781,2458,788,905,2581,6345,9776,13080,6345
8148,2459,804,908,2534,6345,9776,13080,6345
8148,2463,828,945,2564,6345,9776,13080,6345
7781,2464,882,904,2551,6345,9776,13080,6345
8148,2464,826,929,2515,6345,9776,13080,6345
7781,2460,851,943,2575,6345,9776,13080,6345
8148,2463,810,944,2534,6345,9776,13080,6345
8148,2459,855,1009,2560,6345,9776,13080,6345
7781,2462,850,974,2567,6345,9776,13080,6345
8148,2467,890,1013,2527,6345,9776,13080,6345
7781,2458,909,953,2594,6345,9776,13080,6345
8148,2459,844,1003,2539,6345,9776,13080,6345
8148,2459,888,929,2583,6345,9776,13080,6345
7781,2458,839,938,2565,6345,9776,13080,6345
8148,2467,850,966,2524,6345,9776,13080,6345
7781,2454,818,893,2586,6345,9776,13080,6345
8148,2459,849,878,2536,6345,9776,13080,6345
8148,2457,821,823,2580,6345,9776,13080,6345
7781,2458,795,944,2557,6345,9776,13080,6345
8148,2463,850,869,2521,6345,9776,13080,6345
7781,2455,831,928,2589,6345,9776,13080,6345
8148,2466,856,1001,2537,6345,9776,13080,6345
8148,2459,870,988,2573,6345,9776,13080,6345
7781,2457,935,946,2556,6345,9776,13080,6345
8148,2462,876,900,2522,6345,9776,13080,6345
7781,2455,866,921,2579,6345,9776,13080,6345
8148,2456,839,845,2528,6345,9776,13080,6345
8148,2460,876,925,2567,6345,9776,13080,6345
7751,2458,855,877,2559,6345,9738,13051,6345
8148,2463,382,413,2524,6345,9738,13051,6345
7781,2459,358,349,2591,6345,9738,13051,6345
8148,2462,313,367,2541,6345,9738,13051,6345
8148,2457,337,267,2576,6345,9738,13051,6345
7781,2460,297,295,2561,6345,9738,13051,6345
8148,2459,317,328,2525,6345,9738,13051,6345
7781,2464,312,298,2591,6345,9738,13051,6345
8148,2460,376,303,2539,6345,9738,13051,6345
8148,2464,355,241,2574,6345,9738,13051,6345
7781,2460,322,373,2552,6345,9738,13051,6345
8148,2464,385,284,2523,6345,9738,13051,6345
7781,2453,362,344,2603,6345,9738,13051,6345
8148,2462,387,397,2545,6345,9738,13051,6345
8148,2457,393,415,2587,6345,9738,13051,6345
7781,2453,471,394,2573,6345,9738,13051,6345
8148,2464,401,370,2527,6345,9738,13051,6345
7781,2460,411,414,2601,6345,9738,13051,6345
8148,2461,389,380,2550,6345,9738,13051,6345
8148,2458,423,427,2588,6345,9738,13051,6345
7781,2459,392,389,2568,6345,9738,13051,6345
8148,2458,409,402,2528,6345,9738,13051,6345
7781,2460,462,355,2597,6345,9738,13051,6345
8148,2460,352,393,2545,6345,9738,13051,6345
8148,2453,386,334,2580,6345,9738,13051,6345
7781,2459,351,358,2571,6345,9738,13051,6345
8148,2460,380,412,2522,6345,9738,13051,6345
7781,2460,373,383,2593,6345,9738,13051,6345
8148,2461,428,402,2539,6345,9738,13051,6345
8148,2459,427,373,2578,6345,9738,13051,6345
7781,2460,399,478,2562,6345,9738,13051,6345
8148,2456,447,410,2524,6345,9738,13051,6345
7781,2464,423,447,2584,6345,9738,13051,6345
8148,2458,459,434,2537,6345,9738,13051,6345
8148,2455,404,456,2572,6345,9738,13051,6345
7781,2453,466,417,2556,6345,9738,13051,6345
8148,2462,434,358,2520,6345,9738,13051,6345
7781,2457,406,461,2582,6345,9738,13051,6345
8148,2464,408,430,2539,6345,9738,13051,6345
8148,2457,445,483,2565,6345,9738,13051,6345
7781,2460,442,473,2552,6345,9738,13051,6345
8148,2460,451,504,2519,6345,9738,13051,6345
7781,2459,516,474,2573,6345,9738,13051,6345
8148,2459,441,496,2527,6345,9738,13051,6345
8148,2454,469,493,2582,6345,9738,13051,6345
7781,2457,465,476,2569,6345,9738,13051,6345
8148,2453,512,527,2529,6345,9738,13051,6345
7781,2459,491,492,2600,6345,9738,13051,6345
8148,2458,511,461,2543,6345,9738,13051,6345
8148,2460,507,398,2583,6345,9738,13051,6345
7781,2456,447,473,2563,6345,9738,13051,6345
8148,2467,467,389,2525,6345,9738,13051,6345
7781,2461,421,415,2593,6345,9738,13051,6345
8148,2457,453,494,2540,6345,9738,13051,6345
8148,2462,411,467,2577,6345,9738,13051,6345
7751,2456,478,473,2572,6345,9738,13051,6345
8148,2465,449,425,2527,6345,9738,13051,6345
7781,2464,439,563,2597,6345,9738,13051,6345
8148,2461,457,572,2544,6345,9738,13051,6345
8148,2464,521,650,2586,6345,9738,13051,6345
7781,2457,521,642,2562,6345,9738,13051,6345
8148,2460,517,670,2532,6345,9738,13051,6345
7781,2457,529,631,2592,6345,9738,13051,6345
8148,2463,490,646,2539,6345,9738,13051,6345
8148,2459,503,636,2577,6345,9738,13051,6345
7781,2454,490,630,2567,6345,9738,13051,6345
8148,2462,525,682,2523,6345,9738,13051,6345
7781,2456,511,652,2589,6345,9738,13051,6345
8148,2462,535,650,2534,6345,9738,13051,6345
8148,2459,541,595,2577,6345,9738,13051,6345
7781,2460,494,684,2557,6345,9738,13051,6345
8148,2464,528,621,2517,6345,9738,13051,6345
7781,2458,508,641,2582,6345,9738,13051,6345
8148,2460,594,663,2538,6345,9738,13051,6345
8148,2464,521,700,2569,6345,9738,13051,6345
7751,2457,589,684,2561,6345,9738,13051,6345
8148,2458,575,648,2535,6345,9738,13051,6345
7781,2453,556,756,2617,6345,9738,13051,6345
8148,2457,563,704,2555,6345,9738,13051,6345
8148,2460,608,761,2521,6345,9738,13051,6345
7781,2453,605,733,2576,6345,9738,13051,6345
8148,2460,589,730,2540,6345,9738,13051,6345
7781,2457,594,641,2609,6345,9738,13051,6345
8148,2459,538,692,2549,6345,9738,13051,6345
8148,2462,555,685,2599,6345,9738,13051,6345
7781,2459,527,657,2578,6345,9738,13051,6345
8148,2464,570,679,2532,6345,9738,13051,6345
7781,2462,534,676,2606,6345,9738,13051,6345
8148,2461,564,667,2552,6345,9738,13051,6345
8148,2466,560,582,2592,6345,9738,13051,6345
7781,2459,530,676,2572,6345,9738,13051,6345
8148,2460,550,623,2527,6345,9738,13051,6345
7781,2459,556,702,2598,6345,9738,13051,6345
8148,2464,611,663,2546,6345,9738,13051,6345
8148,2464,558,725,2592,6345,9738,13051,6345
7751,2453,630,703,2580,6345,9738,13051,6345
8148,2461,574,647,2538,6345,9738,13051,6345
8148,2460,601,758,2568,6345,9738,13051,6345
7781,2459,596,700,2548,6345,9738,13051,6345
8148,2460,638,745,2517,6345,9738,13051,6345
7781,2458,628,709,2574,6345,9738,13051,6345
8148,2461,589,735,2533,6345,9738,13051,6345
8148,2462,621,652,2563,6345,9738,13051,6345
7781,2452,580,714,2548,6345,9738,13051,6345
8148,2456,606,722,2516,6345,9738,13051,6345
7781,2459,582,715,2571,6345,9738,13051,6345
8148,2460,660,758,2526,6345,9738,13051,6345
8148,2464,599,718,2560,6345,9738,13051,6345
7781,2455,625,708,2559,6345,9738,13051,6345
8148,2463,639,653,2525,6345,9738,13051,6345
7781,2458,603,731,2594,6345,9738,13051,6345
8148,2458,628,686,2542,6345,9738,13051,6345
8148,2460,625,740,2577,6345,9738,13051,6345
7781,2454,667,692,2557,6345,9738,13051,6345
8148,2467,586,702,2523,6345,9738,13051,6345
7751,2460,639,680,2597,6345,9738,13051,6345
8148,2467,566,678,2542,6345,9738,13051,6345
8148,2459,588,751,2584,6345,9738,13051,6345
7781,2458,589,688,2559,6345,9738,13051,6345
8148,2460,626,731,2531,6345,9738,13051,6345
7781,2459,642,703,2588,6345,9738,13051,6345
8148,2462,603,710,2543,6345,9738,13051,6345
8148,2464,634,625,2582,6345,9738,13051,6345
7781,2453,575,680,2566,6345,9738,13051,6345
8148,2467,606,660,2516,6345,9738,13051,6345
7781,2453,561,613,2586,6345,9738,13051,6345
8148,2460,618,619,2538,6345,9738,13051,6345
8148,2456,536,607,2571,6345,9738,13051,6345
7781,2460,563,605,2557,6345,9738,13051,6345
8148,2467,563,541,2520,6345,9738,13051,6345
7781,2460,537,625,2581,6345,9738,13051,6345
8148,2458,542,614,2533,6345,9738,13051,6345
8148,2459,565,661,2569,6345,9738,13051,6345
7781,2462,605,601,2557,6345,9738,13051,6345
8148,2462,529,612,2524,6345,9738,13051,6345
7751,2463,554,568,2589,6345,9738,13051,6345
8148,2460,508,574,2535,6345,9738,13051,6345
8148,2456,508,598,2571,6345,9738,13051,6345
7781,2460,507,566,2557,6345,9738,13051,6345
8148,2462,548,615,2526,6345,9738,13051,6345
7781,2464,526,591,2614,6345,9738,13051,6345
8148,2464,529,604,2552,6345,9738,13051,6345
8148,2458,548,523,2597,6345,9738,13051,6345
7781,2466,498,565,2573,6345,9738,13051,6345
8148,2464,506,566,2532,6345,9738,13051,6345
7781,2465,505,511,2604,6345,9738,13051,6345
8148,2461,573,536,2551,6345,9738,13051,6345
8148,2460,510,554,2593,6345,9738,13051,6345
7781,2452,546,572,2572,6345,9738,13051,6345
8148,2459,568,516,2529,6345,9738,13051,6345
7781,2460,561,591,2601,6345,9738,13051,6345
8148,2467,530,569,2550,6345,9738,13051,6345
8148,2460,558,595,2586,6345,9738,13051,6345
7781,2464,611,560,2566,6345,9738,13051,6345
8148,2459,533,563,2531,6345,9738,13051,6345
7781,2459,551,540,2592,6345,9738,13051,6345
8148,2460,499,520,2545,6345,9738,13051,6345
8148,2462,515,566,2582,6345,9738,13051,6345
7781,2457,475,492,2559,6345,9738,13051,6345
8148,2456,498,523,2521,6345,9738,13051,6345
8117,2453,480,458,2564,6345,9738,13051,6345
7781,2459,493,537,2545,6345,9738,13051,6345
8148,2457,542,487,2515,6345,9738,13051,6345
7781,2452,520,561,2569,6345,9738,13051,6345
8148,2457,547,587,2522,6345,9738,13051,6345
7781,2453,569,614,2597,6345,9738,13051,6345
8148,2459,630,558,2540,6345,9738,13051,6345
8148,2467,548,543,2514,6345,9738,13051,6345
7781,2460,569,534,2561,6345,9738,13051,6345
8148,2455,575,446,2523,6345,9738,13051,6345
7781,2456,556,536,2590,6345,9738,13051,6345
8148,2458,515,470,2540,6345,9738,13051,6345
8148,2465,527,477,2522,6345,9738,13051,6345
7781,2454,558,415,2583,6345,9738,13051,6345
8148,2467,463,402,2536,6345,9738,13051,6345
7781,2460,466,333,2620,6345,9738,13051,6345
8148,2459,409,355,2553,6345,9738,13051,6345
8148,2460,437,399,2599,6345,9738,13051,6345
7781,2464,413,364,2577,6345,9738,13051,6345
8148,2460,452,435,2533,6345,9738,13051,6345
8117,2458,441,380,2582,6345,9738,13051,6345
7781,2455,454,472,2559,6345,9738,13051,6345
8148,2460,490,428,2525,6345,9738,13051,6345
7781,2465,467,494,2590,6345,9738,13051,6345
8148,2463,491,566,2543,6345,9738,13051,6345
8148,2460,514,588,2575,6345,9738,13051,6345
7781,2459,581,565,2559,6345,9738,13051,6345
8148,2460,523,566,2524,6345,9738,13051,6345
7781,2460,545,585,2580,6345,9738,13051,6345
8148,2459,504,520,2533,6345,9738,13051,6345
8148,2459,558,639,2568,6345,9738,13051,6345
7781,2464,526,586,2550,6345,9738,13051,6345
8148,2464,551,611,2521,6345,9738,13051,6345
7781,2462,587,555,2573,6345,9738,13051,6345
8148,2461,494,580,2537,6345,9738,13051,6345
8148,2460,543,515,2566,6345,9738,13051,6345
7781,2460,515,574,2551,6345,9738,13051,6345
8148,2460,587,641,2511,6345,9738,13051,6345
7781,2455,569,597,2573,6345,9738,13051,6345
8148,2456,643,653,2534,6345,9738,13051,6345
8117,2458,618,598,2570,6345,9738,13051,6345
7781,2459,625,694,2553,6345,9738,13051,6345
8148,2466,686,602,2522,6345,9738,13051,6345
7781,2467,653,645,2581,6345,9738,13051,6345
8148,2461,667,667,2549,6345,9738,13051,6345
8148,2464,671,669,2593,6345,9738,13051,6345
7781,2456,725,630,2572,6345,9738,13051,6345
8148,2460,661,625,2529,6345,9738,13051,6345
7781,2459,683,628,2603,6345,9738,13051,6345
8148,2462,635,591,2549,6345,9738,13051,6345
8148,2464,665,618,2586,6345,9738,13051,6345
7781,2456,617,575,2567,6345,9738,13051,6345
8148,2467,646,603,2528,6345,9738,13051,6345
7781,2462,687,564,2598,6345,9738,13051,6345
8148,2465,601,595,2544,6345,9738,13051,6345
8148,2460,630,529,2584,6345,9738,13051,6345
7781,2464,594,561,2565,6345,9738,13051,6345
8148,2462,626,619,2528,6345,9738,13051,6345
7781,2467,615,580,2593,6345,9738,13051,6345
8148,2462,656,609,2540,6345,9738,13051,6345
8117,2453,645,577,2589,6345,9738,13051,6345
7781,2459,643,687,2570,6345,9738,13051,6345
8148,2460,695,608,2521,6345,9738,13051,6345
7781,2466,706,715,2592,6345,9738,13051,6345
8148,2465,696,692,2540,6345,9738,13051,6345
8148,2459,685,686,2581,6345,9738,13051,6345
7781,2457,734,631,2568,6345,9738,13051,6345
8148,2462,657,619,2521,6345,9738,13051,6345
7781,2453,650,639,2590,6345,9738,13051,6345
8148,2455,621,617,2540,6345,9738,13051,6345
8148,2460,665,665,2579,6345,9738,13051,6345
7781,2459,622,631,2562,6345,9738,13051,6345
8148,2461,649,674,2521,6345,9738,13051,6345
7781,2461,653,634,2587,6345,9738,13051,6345
8148,2460,624,686,2538,6345,9738,13051,6345
8148,2460,673,616,2571,6345,9738,13051,6345
7781,2459,645,646,2576,6345,9738,13051,6345
8148,2467,688,696,2535,6345,9738,13051,6345
7781,2460,648,656,2614,6345,9738,13051,6345
8148,2464,712,647,2554,6345,9738,13051,6345
8117,2459,669,582,2524,6345,9738,13051,6345
7781,2459,632,675,2582,6345,9738,13051,6345
8148,2459,675,583,2538,6345,9738,13051,6345
8148,2459,666,679,2577,6345,9738,13051,6345
7781,2458,644,677,2559,6345,9738,13051,6345
8148,2463,659,682,2517,6345,9738,13051,6345
7781,2456,723,651,2582,6345,9738,13051,6345
8148,2461,672,629,2532,6345,9738,13051,6345
8148,2464,666,624,2573,6345,9738,13051,6345
7781,2456,642,618,2550,6345,9738,13051,6345
8148,2460,674,645,2519,6345,9738,13051,6345
7781,2462,631,608,2576,6345,9738,13051,6345
8148,2463,636,614,2532,6345,9738,13051,6345
8148,2458,637,523,2567,6345,9738,13051,6345
7781,2455,578,620,2549,6345,9738,13051,6345
8148,2466,631,566,2516,6345,9738,13051,6345
7781,2456,608,618,2575,6345,9738,13051,6345
8148,2457,668,682,2528,6345,9738,13051,6345
7781,2459,644,696,2601,6345,9738,13051,6345
8148,2450,726,677,2545,6345,9738,13051,6345
8117,2460,694,609,2521,6345,9738,13051,6345
7781,2463,667,702,2581,6345,9738,13051,6345
8148,2463,659,645,2533,6345,9738,13051,6345
8148,2455,695,693,2566,6345,9738,13051,6345
7781,2455,668,679,2554,6345,9738,13051,6345
8148,2460,665,676,2521,6345,9738,13051,6345
7781,2457,711,628,2572,6345,9738,13051,6345
8148,2462,631,672,2528,6345,9738,13051,6345
8148,2454,656,622,2582,6345,9738,13051,6345
7781,2461,653,657,2570,6345,9738,13051,6345
8148,2464,702,708,2524,6345,9738,13051,6345
7781,2460,693,672,2592,6345,9738,13051,6345
8148,2463,715,696,2545,6345,9738,13051,6345
8148,2460,711,597,2582,6345,9738,13051,6345
7781,2467,665,663,2568,6345,9738,13051,6345
8148,2458,703,598,2524,6345,9738,13051,6345
7781,2467,671,626,2588,6345,9738,13051,6345
8148,2465,727,668,2540,6345,9738,13051,6345
8148,2461,667,659,2578,6345,9738,13051,6345
7781,2459,733,646,2560,6345,9738,13051,6345
8117,2459,707,587,2521,6345,9738,13051,6345
7781,2466,694,703,2596,6345,9738,13051,6345
8148,2465,692,660,2545,6345,9738,13051,6345
8148,2453,726,709,2581,6345,9738,13051,6345
7781,2456,712,677,2558,6345,9738,13051,6345
8148,2467,696,664,2522,6345,9738,13051,6345
7781,2452,716,622,2595,6345,9738,13051,6345
8148,2458,660,641,2539,6345,9738,13051,6345
8148,2458,670,600,2577,6345,9738,13051,6345
7781,2455,638,596,2559,6345,9738,13051,6345
8148,2463,673,642,2527,6345,9738,13051,6345
7781,2454,638,623,2587,6345,9738,13051,6345
8148,2461,687,653,2538,6345,9738,13051,6345
8148,2464,692,627,2573,6345,9738,13051,6345
7781,2456,649,729,2555,6345,9738,13051,6345
8148,2466,687,660,2521,6345,9738,13051,6345
7781,2467,661,705,2585,6345,9738,13051,6345
8148,2452,718,742,2534,6345,9738,13051,6345
8148,2460,673,785,2570,6345,9738,13051,6345
7781,2459,742,776,2547,6345,9738,13051,6345
8117,2454,712,720,2534,6345,9738,13051,6345
7781,2460,704,858,2624,6345,9738,13051,6345
8148,2464,708,806,2555,6345,9738,13051,6345
8148,2460,757,836,2604,6345,9738,13051,6345
7781,2460,745,834,2582,6345,9738,13051,6345
8148,2460,737,841,2533,6345,9738,13051,6345
7781,2460,742,754,2611,6345,9738,13051,6345
8148,2468,694,815,2555,6345,9738,13051,6345
8148,2460,709,780,2599,6345,9738,13051,6345
7781,2460,686,774,2579,6345,9738,13051,6345
8148,2460,723,827,2534,6345,9738,13051,6345
7781,2460,679,794,2611,6345,9738,13051,6345
8148,2462,730,792,2552,6345,9738,13051,6345
8148,2456,747,751,2587,6345,9738,13051,6345
7781,2459,717,839,2569,6345,9738,13051,6345
8148,2464,768,799,2531,6345,9738,13051,6345
7781,2464,785,878,2598,6345,9738,13051,6345
8148,2467,826,817,2543,6345,9738,13051,6345
8148,2464,758,827,2583,6345,9738,13051,6345
7781,2460,813,799,2567,6345,9738,13051,6345
8117,2461,732,710,2531,6345,9738,13051,6345
8148,2454,739,845,2565,6345,9738,13051,6345
7781,2457,722,772,2551,6345,9738,13051,6345
8148,2458,754,812,2516,6345,9738,13051,6345
7781,2456,733,771,2567,6345,9738,13051,6345
8148,2458,721,793,2530,6345,9738,13051,6345
8148,2462,753,708,2565,6345,9738,13051,6345
7781,2467,724,804,2547,6345,9738,13051,6345
8148,2460,753,791,2515,6345,9738,13051,6345
7781,2457,744,801,2567,6345,9738,13051,6345
8148,2460,821,878,2528,6345,9738,13051,6345
8148,2467,761,858,2566,6345,9738,13051,6345
7781,2459,801,842,2566,6345,9738,13051,6345
8148,2460,787,781,2524,6345,9738,13051,6345
7781,2449,745,870,2587,6345,9738,13051,6345
8148,2463,778,812,2536,6345,9738,13051,6345
8148,2464,783,898,2580,6345,9738,13051,6345
7781,2464,815,839,2556,6345,9738,13051,6345
8148,2475,765,878,2521,6345,9738,13051,6345
7781,2458,815,831,2587,6345,9738,13051,6345
8117,2462,743,808,2544,6345,9738,13051,6345
8148,2458,746,865,2583,6345,9738,13051,6345
7781,2469,725,785,2564,6345,9738,13051,6345
8148,2462,764,820,2527,6345,9738,13051,6345
7781,2460,746,808,2592,6345,9738,13051,6345
8148,2458,731,804,2537,6345,9738,13051,6345
8148,2464,763,738,2584,6345,9738,13051,6345
7781,2455,730,790,2554,6345,9738,13051,6345
8148,2460,750,767,2524,6345,9738,13051,6345
7781,2455,739,759,2590,6345,9738,13051,6345
8148,2459,812,776,2535,6345,9738,13051,6345
8148,2462,748,796,2571,6345,9738,13051,6345
7781,2461,798,792,2559,6345,9738,13051,6345
8148,2460,792,736,2524,6345,9738,13051,6345
7781,2459,738,800,2584,6345,9738,13051,6345
8148,2467,741,787,2534,6345,9738,13051,6345
8148,2464,774,822,2569,6345,9738,13051,6345
7781,2464,807,780,2551,6345,9738,13051,6345
8148,2457,750,798,2520,6345,9738,13051,6345
7781,2457,810,773,2575,6345,9738,13051,6345
8148,2460,737,772,2534,6345,9738,13051,6345
8148,2460,751,814,2563,6345,9738,13051,6345
7781,2462,725,752,2551,6345,9738,13051,6345
8148,2467,751,791,2518,6345,9738,13051,6345
7781,2460,753,726,2600,6345,9738,13051,6345
8117,2457,716,756,2550,6345,9738,13051,6345
8148,2459,748,702,2593,6345,9738,13051,6345
7781,2458,727,776,2576,6345,9738,13051,6345
8148,2460,748,777,2532,6345,9738,13051,6345
7781,2465,773,756,2604,6345,9738,13051,6345
8148,2463,828,761,2547,6345,9738,13051,6345
8148,2460,759,746,2594,6345,9738,13051,6345
7781,2460,791,722,2579,6345,9738,13051,6345
8148,2459,777,652,2526,6345,9738,13051,6345
7781,2459,745,713,2595,6345,9738,13051,6345
8148,2461,734,683,2542,6345,9738,13051,6345
8117,2467,762,719,2524,6345,9710,13019,6345
7781,2459,536,442,2578,6345,9710,13019,6345
8148,2460,503,490,2534,6345,9710,13019,6345
8148,2462,539,427,2569,6345,9710,13019,6345
7781,2463,504,471,2551,6345,9710,13019,6345
8148,2469,528,543,2517,6345,9710,13019,6345
7781,2465,529,492,2573,6345,9710,13019,6345
8148,2463,554,532,2529,6345,9710,13019,6345
8148,2462,521,465,2563,6345,9710,13019,6345
7781,2456,530,500,2543,6345,9710,13019,6345
8148,2460,542,407,2514,6345,9710,13019,6345
7781,2455,484,450,2572,6345,9710,13019,6345
8148,2459,504,448,2529,6345,9710,13019,6345
7781,2460,494,492,2599,6345,9710,13019,6345
8148,2462,551,439,2546,6345,9710,13019,6345
8148,2464,483,453,2516,6345,9710,13019,6345
7781,2457,522,456,2569,6345,9710,13019,6345
8148,2463,527,411,2521,6345,9710,13019,6345
7781,2460,498,509,2592,6345,9710,13019,6345
8148,2461,489,494,2535,6345,9710,13019,6345
8148,2460,522,541,2522,6345,9710,13019,6345
7781,2462,578,480,2581,6345,9710,13019,6345
8148,2466,508,500,2536,6345,9710,13019,6345
7781,2456,517,426,2617,6345,9710,13019,6345
8148,2465,474,456,2559,6345,9710,13019,6345
8148,2463,506,488,2603,6345,9710,13019,6345
7781,2464,482,440,2580,6345,9710,13019,6345
8148,2463,511,482,2538,6345,9710,13019,6345
7781,2455,505,386,2608,6345,9710,13019,6345
8117,2458,489,494,2560,6345,9710,13019,6345
8148,2460,521,439,2522,6345,9710,13019,6345
7781,2462,501,533,2587,6345,9710,13019,6345
8148,2461,510,561,2539,6345,9710,13019,6345
8148,2457,527,629,2578,6345,9710,13019,6345
7781,2467,586,609,2560,6345,9710,13019,6345
8148,2460,533,632,2522,6345,9710,13019,6345
7781,2460,571,661,2577,6345,9710,13019,6345
8148,2460,522,603,2533,6345,9710,13019,6345
8148,2456,568,753,2566,6345,9710,13019,6345
7781,2458,557,720,2551,6345,9710,13019,6345
8148,2459,587,755,2518,6345,9710,13019,6345
7781,2459,646,703,2575,6345,9710,13019,6345
8148,2462,545,745,2531,6345,9710,13019,6345
8148,2459,596,687,2569,6345,9710,13019,6345
7781,2455,553,722,2553,6345,9710,13019,6345
8148,2460,591,786,2516,6345,9710,13019,6345
7781,2460,569,726,2567,6345,9710,13019,6345
8148,2458,621,762,2533,6345,9710,13019,6345
8148,2460,587,659,2559,6345,9710,13019,6345
7781,2460,557,788,2548,6345,9710,13019,6345
8148,2467,630,717,2514,6345,9710,13019,6345
7781,2455,606,784,2566,6345,9710,13019,6345
8148,2459,640,841,2542,6345,9710,13019,6345
8148,2457,646,838,2581,6345,9710,13019,6345
7781,2459,723,809,2564,6345,9710,13019,6345
8148,2460,665,780,2524,6345,9710,13019,6345
7781,2453,669,827,2587,6345,9710,13019,6345
8148,2459,696,743,2537,6345,9710,13019,6345
8148,2467,698,853,2574,6345,9710,13019,6345
7781,2458,665,810,2561,6345,9710,13019,6345
8148,2459,678,812,2521,6345,9710,13019,6345
7781,2460,727,773,2581,6345,9710,13019,6345
8148,2459,657,770,2533,6345,9710,13019,6345
8148,2462,663,734,2570,6345,9710,13019,6345
7781,2456,638,764,2558,6345,9710,13019,6345
8148,2469,671,795,2520,6345,9710,13019,6345
7781,2459,642,752,2579,6345,9710,13019,6345
8148,2457,667,787,2529,6345,9710,13019,6345
8148,2466,666,685,2569,6345,9710,13019,6345
7781,2460,622,768,2552,6345,9710,13019,6345
8148,2455,659,676,2521,6345,9710,13019,6345
7781,2464,629,722,2568,6345,9710,13019,6345
8148,2460,665,780,2526,6345,9710,13019,6345
7781,2460,642,778,2598,6345,9710,13019,6345
8148,2462,710,760,2543,6345,9710,13019,6345
8148,2460,691,749,2518,6345,9710,13019,6345
7781,2459,660,807,2569,6345,9710,13019,6345
8148,2462,697,713,2521,6345,9710,13019,6345
7781,2457,686,808,2598,6345,9710,13019,6345
8148,2463,669,771,2537,6345,9710,13019,6345
8148,2459,658,784,2578,6345,9710,13019,6345
7781,2461,729,754,2559,6345,9710,13019,6345
8148,2459,667,715,2524,6345,9710,13019,6345
7781,2456,650,756,2586,6345,9710,13019,6345
8148,2464,625,723,2560,6345,9710,13019,6345
8148,2460,658,747,2603,6345,9710,13019,6345
7781,2457,620,718,2578,6345,9710,13019,6345
8148,2463,619,732,2536,6345,9710,13019,6345
7781,2457,610,624,2608,6345,9710,13019,6345
8148,2465,557,709,2553,6345,9710,13019,6345
8148,2460,595,655,2602,6345,9710,13019,6345
7781,2467,573,680,2578,6345,9710,13019,6345
8148,2460,621,730,2530,6345,9710,13019,6345
7781,2460,587,721,2608,6345,9710,13019,6345
8148,2463,645,693,2547,6345,9710,13019,6345
8148,2459,642,621,2593,6345,9710,13019,6345
7781,2460,602,725,2572,6345,9710,13019,6345
8148,2467,632,640,2527,6345,9710,13019,6345
7781,2460,607,638,2600,6345,9710,13019,6345
8148,2463,607,616,2550,6345,9710,13019,6345
8148,2460,550,650,2584,6345,9710,13019,6345
7781,2460,600,609,2567,6345,9710,13019,6345
8148,2462,559,540,2525,6345,9710,13019,6345
7781,2459,528,648,2596,6345,9710,13019,6345
8148,2463,529,623,2539,6345,9710,13019,6345
8148,2457,559,660,2581,6345,9710,13019,6345
7781,2459,553,641,2561,6345,9710,13019,6345
8148,2460,543,675,2526,6345,9710,13019,6345
7781,2453,568,639,2588,6345,9710,13019,6345
8148,2458,543,673,2535,6345,9710,13019,6345
8148,2460,579,706,2578,6345,9710,13019,6345
7781,2454,584,691,2557,6345,9710,13019,6345
8148,2464,640,771,2521,6345,9710,13019,6345
7781,2460,612,741,2585,6345,9710,13019,6345
8148,2464,647,721,2540,6345,9710,13019,6345
8148,2459,655,639,2575,6345,9710,13019,6345
7781,2460,614,708,2583,6345,9710,13019,6345
8148,2462,616,621,2531,6345,9710,13019,6345
7781,2466,600,604,2605,6345,9710,13019,6345
8148,2463,628,595,2544,6345,9710,13019,6345
8148,2460,546,608,2594,6345,9710,13019,6345
7781,2459,583,565,2568,6345,9710,13019,6345
8148,2464,573,522,2526,6345,9710,13019,6345
7781,2457,540,606,2600,6345,9710,13019,6345
8148,2461,542,575,2547,6345,9710,13019,6345
8148,2457,581,613,2588,6345,9710,13019,6345
7781,2457,611,586,2571,6345,9710,13019,6345
8148,2467,557,558,2524,6345,9710,13019,6345
7781,2460,618,519,2595,6345,9710,13019,6345
8148,2463,525,516,2545,6345,9710,13019,6345
8148,2467,530,544,2579,6345,9710,13019,6345
7781,2459,519,504,2563,6345,9710,13019,6345
8148,2459,538,530,2523,6345,9710,13019,6345
7781,2456,537,491,2590,6345,9710,13019,6345
8148,2462,510,516,2540,6345,9710,13019,6345
8148,2463,541,453,2575,6345,9710,13019,6345
7781,2461,517,489,2558,6345,9710,13019,6345
8148,2463,531,529,2519,6345,9710,13019,6345
7781,2459,541,482,2584,6345,9710,13019,6345
8148,2462,595,473,2536,6345,9710,13019,6345
8148,2458,521,439,2573,6345,9710,13019,6345
7781,2459,541,438,2557,6345,9710,13019,6345
8148,2465,518,333,2519,6345,9710,13019,6345
7781,2462,448,380,2581,6345,9710,13019,6345
8148,2459,428,351,2533,6345,9710,13019,6345
8148,2453,436,387,2573,6345,9710,13019,6345
7781,2459,481,328,2556,6345,9710,13019,6345
8148,2470,406,343,2520,6345,9710,13019,6345
7781,2462,457,332,2599,6345,9710,13019,6345
8148,2461,388,342,2550,6345,9710,13019,6345
8148,2462,424,406,2587,6345,9710,13019,6345
7781,2457,423,395,2570,6345,9710,13019,6345
8148,2466,466,447,2532,6345,9710,13019,6345
7781,2458,506,433,2601,6345,9710,13019,6345
8148,2463,435,511,2541,6345,9710,13019,6345
8148,2464,481,427,2584,6345,9710,13019,6345
7781,2459,455,500,2565,6345,9710,13019,6345
8148,2465,471,548,2524,6345,9710,13019,6345
7781,2459,477,546,2587,6345,9710,13019,6345
8148,2458,554,571,2539,6345,9710,13019,6345
8148,2460,517,531,2574,6345,9710,13019,6345
7781,2460,529,610,2563,6345,9710,13019,6345
8148,2462,551,528,2518,6345,9710,13019,6345
7781,2458,498,554,2580,6345,9710,13019,6345
8148,2461,495,564,2535,6345,9710,13019,6345
8148,2459,474,544,2570,6345,9710,13019,6345
7781,2459,508,492,2557,6345,9710,13019,6345
8148,2465,423,463,2526,6345,9710,13019,6345
7781,2462,431,469,2580,6345,9710,13019,6345
8148,2456,385,403,2535,6345,9710,13019,6345
8148,2459,438,551,2569,6345,9710,13019,6345
7781,2460,438,523,2552,6345,9710,13019,6345
8148,2460,499,597,2517,6345,9710,13019,6345
7781,2455,577,603,2576,6345,9710,13019,6345
8148,2459,527,635,2532,6345,9710,13019,6345
8148,2458,591,597,2564,6345,9710,13019,6345
7781,2453,578,627,2548,6345,9710,13019,6345
8148,2460,619,675,2513,6345,9710,13019,6345
7781,2460,602,610,2569,6345,9710,13019,6345
8148,2463,650,616,2525,6345,9710,13019,6345
8148,2456,599,517,2587,6345,9710,13019,6345
7781,2460,557,590,2564,6345,9710,13019,6345
8148,2459,576,475,2527,6345,9710,13019,6345
7781,2464,524,494,2589,6345,9710,13019,6345
8148,2462,517,513,2542,6345,9710,13019,6345
8148,2462,473,493,2585,6345,9710,13019,6345
7781,2458,522,459,2560,6345,9710,13019,6345
8148,2466,481,409,2524,6345,9710,13019,6345
7781,2475,455,519,2587,6345,9710,13019,6345
8148,2462,458,451,2542,6345,9710,13019,6345
8148,2459,506,555,2574,6345,9710,13019,6345
7781,2459,510,559,2556,6345,9710,13019,6345
8148,2460,530,580,2520,6345,9710,13019,6345
7781,2464,609,554,2590,6345,9710,13019,6345
8148,2458,554,546,2533,6345,9710,13019,6345
8148,2460,556,544,2575,6345,9710,13019,6345
7781,2459,534,533,2554,6345,9710,13019,6345
8148,2461,560,577,2517,6345,9710,13019,6345
7781,2453,527,516,2578,6345,9710,13019,6345
8148,2462,518,528,2534,6345,9710,13019,6345
8148,2459,511,420,2565,6345,9710,13019,6345
7781,2462,459,506,2548,6345,9710,13019,6345
8148,2464,501,430,2515,6345,9710,13019,6345
7781,2464,475,478,2572,6345,9710,13019,6345
8148,2462,529,544,2529,6345,9710,13019,6345
8148,2459,499,525,2563,6345,9710,13019,6345
7781,2457,564,495,2544,6345,9710,13019,6345
8148,2462,527,433,2519,6345,9710,13019,6345
7781,2459,475,511,2566,6345,9710,13019,6345
8148,2461,507,428,2531,6345,9710,13019,6345
7781,2459,514,538,2597,6345,9710,13019,6345
8148,2458,505,504,2543,6345,9710,13019,6345
8148,2457,503,540,2524,6345,9710,13019,6345
7781,2462,552,502,2585,6345,9710,13019,6345
8148,2465,520,442,2540,6345,9710,13019,6345
7781,2462,490,537,2613,6345,9710,13019,6345
8148,2463,497,485,2557,6345,9710,13019,6345
8148,2464,542,540,2522,6345,9710,13019,6345
7781,2455,513,516,2583,6345,9710,13019,6345
8148,2459,505,508,2531,6345,9710,13019,6345
7781,2459,498,412,2614,6345,9710,13019,6345
8148,2463,450,463,2555,6345,9710,13019,6345
8148,2464,462,427,2597,6345,9710,13019,6345
7781,2464,443,411,2572,6345,9710,13019,6345
8148,2464,480,485,2533,6345,9710,13019,6345
7781,2466,456,488,2603,6345,9710,13019,6345
8148,2461,522,498,2548,6345,9710,13019,6345
8148,2464,541,449,2590,6345,9710,13019,6345
7781,2459,507,552,2573,6345,9710,13019,6345
8148,2473,557,463,2532,6345,9710,13019,6345
7781,2460,544,555,2601,6345,9710,13019,6345
8148,2464,571,503,2543,6345,9710,13019,6345
8148,2460,509,543,2586,6345,9710,13019,6345
7781,2459,577,521,2566,6345,9710,13019,6345
8148,2462,536,464,2527,6345,9710,13019,6345
7781,2462,521,558,2593,6345,9710,13019,6345
8148,2464,504,520,2541,6345,9710,13019,6345
8148,2459,546,558,2583,6345,9710,13019,6345
7781,2457,551,507,2563,6345,9710,13019,6345
8148,2460,521,545,2519,6345,9710,13019,6345
7781,2455,547,514,2594,6345,9710,13019,6345
8148,2462,518,517,2539,6345,9710,13019,6345
8148,2458,537,567,2572,6345,9710,13019,6345
7781,2466,533,534,2561,6345,9710,13019,6345
8148,2459,568,568,2534,6345,9710,13019,6345
7781,2460,536,556,2612,6345,9710,13019,6345
8148,2464,554,551,2554,6345,9710,13019,6345
8148,2460,585,482,2596,6345,9710,13019,6345
7781,2464,545,548,2578,6345,9710,13019,6345
8148,2463,570,516,2528,6345,9710,13019,6345
7781,2460,563,514,2610,6345,9710,13019,6345
8148,2462,623,512,2550,6345,9710,13019,6345
8148,2462,547,512,2595,6345,9710,13019,6345
7781,2467,581,501,2574,6345,9710,13019,6345
8148,2463,578,454,2533,6345,9710,13019,6345
7781,2464,563,527,2599,6345,9710,13019,6345
8148,2462,539,504,2549,6345,9710,13019,6345
8148,2460,558,527,2583,6345,9710,13019,6345
7781,2455,586,475,2563,6345,9710,13019,6345
8148,2462,526,502,2525,6345,9710,13019,6345
7781,2461,550,454,2595,6345,9710,13019,6345
8148,2461,502,452,2543,6345,9710,13019,6345
8148,2459,516,491,2582,6345,9710,13019,6345
7781,2460,474,423,2563,6345,9710,13019,6345
8148,2459,507,483,2530,6345,9710,13019,6345
7781,2462,523,466,2592,6345,9710,13019,6345
8148,2464,471,546,2539,6345,9710,13019,6345
8148,2460,531,482,2574,6345,9710,13019,6345
7781,2459,515,565,2553,6345,9710,13019,6345
8148,2464,553,680,2522,6345,9710,13019,6345
7781,2460,573,647,2583,6345,9710,13019,6345
8148,2465,642,661,2533,6345,9710,13019,6345
8148,2463,604,667,2566,6345,9710,13019,6345
7781,2460,615,687,2548,6345,9710,13019,6345
8148,2464,637,613,2516,6345,9710,13019,6345
7781,2459,607,672,2572,6345,9710,13019,6345
8148,2462,622,684,2553,6345,9710,13019,6345
8148,2464,632,688,2590,6345,9710,13019,6345
7781,2460,669,634,2575,6345,9710,13019,6345
8148,2462,594,623,2525,6345,9710,13019,6345
7781,2456,631,604,2603,6345,9710,13019,6345
8148,2465,561,582,2550,6345,9710,13019,6345
8148,2454,592,633,2586,6345,9710,13019,6345
7781,2459,583,607,2570,6345,9710,13019,6345
8148,2467,613,652,2526,6345,9710,13019,6345
7781,2465,653,641,2596,6345,9710,13019,6345
8148,2452,618,715,2544,6345,9710,13019,6345
8148,2464,663,639,2580,6345,9710,13019,6345
7781,2464,637,663,2567,6345,9710,13019,6345
8148,2466,682,718,2523,6345,9710,13019,6345
7781,2460,673,668,2584,6345,9710,13019,6345
8148,2461,740,668,2538,6345,9710,13019,6345
8148,2464,690,576,2574,6345,9710,13019,6345
7781,2464,647,655,2558,6345,9710,13019,6345
8148,2460,670,551,2521,6345,9710,13019,6345
7781,2466,609,552,2579,6345,9710,13019,6345
8148,2459,601,587,2537,6345,9710,13019,6345
8148,2456,585,571,2569,6345,9710,13019,6345
7781,2458,628,541,2554,6345,9710,13019,6345
8148,2464,573,532,2522,6345,9710,13019,6345
7781,2458,591,556,2575,6345,9710,13019,6345
8148,2460,577,555,2530,6345,9710,13019,6345
8148,2459,626,608,2566,6345,9710,13019,6345
7781,2457,606,585,2546,6345,9710,13019,6345
8148,2457,626,620,2518,6345,9710,13019,6345
7781,2459,677,603,2571,6345,9710,13019,6345
8148,2462,587,634,2524,6345,9710,13019,6345
8148,2453,626,602,2560,6345,9710,13019,6345
7781,2460,620,650,2566,6345,9710,13019,6345
8148,2461,669,720,2523,6345,9710,13019,6345
7781,2462,662,668,2593,6345,9710,13019,6345
8148,2463,706,715,2541,6345,9710,13019,6345
8148,2460,673,613,2578,6345,9710,13019,6345
7781,2457,642,699,2560,6345,9710,13019,6345
8148,2467,680,604,2525,6345,9710,13019,6345
7781,2462,617,618,2587,6345,9710,13019,6345
8148,2459,638,646,2539,6345,9710,13019,6345
8148,2462,586,625,2575,6345,9710,13019,6345
7781,2461,638,597,2556,6345,9710,13019,6345
8148,2459,607,524,2522,6345,9710,13019,6345
7781,2462,581,662,2578,6345,9710,13019,6345
8148,2459,587,598,2535,6345,9710,13019,6345
8148,2460,646,720,2570,6345,9710,13019,6345
7781,2451,655,706,2559,6345,9710,13019,6345
8148,2462,680,719,2516,6345,9710,13019,6345
7781,2456,752,700,2573,6345,9710,13019,6345
8148,2457,670,685,2526,6345,9710,13019,6345
8148,2459,695,696,2567,6345,9710,13019,6345
7781,2457,677,686,2550,6345,9710,13019,6345
8148,2466,706,702,2516,6345,9710,13019,6345
7781,2459,668,647,2574,6345,9710,13019,6345
8148,2463,677,661,2532,6345,9710,13019,6345
8148,2456,667,564,2562,6345,9710,13019,6345
7781,2456,611,633,2547,6345,9710,13019,6345
8148,2460,653,569,2514,6345,9710,13019,6345
7781,2466,631,595,2568,6345,9710,13019,6345
8148,2458,665,638,2528,6345,9710,13019,6345
8148,2465,636,630,2560,6345,9710,13019,6345
7781,2457,680,589,2547,6345,9710,13019,6345
8148,2467,667,541,2513,6345,9710,13019,6345
7781,2458,615,614,2587,6345,9710,13019,6345
8148,2458,654,555,2545,6345,9710,13019,6345
8148,2465,649,643,2579,6345,9710,13019,6345
7781,2457,667,593,2552,6345,9710,13019,6345
8148,2461,615,608,2521,6345,9710,13019,6345
7781,2460,694,580,2585,6345,9710,13019,6345
8148,2459,653,501,2533,6345,9710,13019,6345
8148,2461,638,649,2577,6345,9710,13019,6345
7781,2457,630,560,2559,6345,9710,13019,6345
8148,2464,667,616,2522,6345,9710,13019,6345
7781,2459,649,579,2573,6345,9710,13019,6345
8148,2460,630,590,2534,6345,9710,13019,6345
7781,2460,650,512,2610,6345,9710,13019,6345
8148,2458,605,572,2550,6345,9710,13019,6345
8148,2466,628,569,2517,6345,9710,13019,6345
7781,2458,610,548,2577,6345,9710,13019,6345
8148,2459,658,589,2527,6345,9710,13019,6345
7781,2459,627,565,2602,6345,9710,13019,6345
8148,2457,671,577,2545,6345,9710,13019,6345
8148,2462,664,492,2517,6345,9710,13019,6345
7781,2456,625,575,2564,6345,9710,13019,6345
8148,2459,637,523,2524,6345,9710,13019,6345
7781,2457,630,573,2596,6345,9710,13019,6345
8148,2460,624,513,2541,6345,9710,13019,6345
8148,2464,582,533,2585,6345,9710,13019,6345
7781,2457,638,515,2562,6345,9710,13019,6345
8148,2457,620,469,2524,6345,9710,13019,6345
7781,2453,604,580,2588,6345,9710,13019,6345
8148,2459,596,542,2541,6345,9710,13019,6345
8148,2457,627,583,2576,6345,9710,13019,6345
7781,2464,651,518,2562,6345,9710,13019,6345
8148,2460,591,557,2522,6345,9710,13019,6345
7781,2458,615,482,2619,6345,9710,13019,6345
8148,2463,561,493,2554,6345,9710,13019,6345
8148,2458,568,547,2604,6345,9710,13019,6345
7751,2459,551,456,2593,6345,9686,12990,6345
8148,2460,354,239,2545,6345,9686,12990,6345
8148,2456,263,180,2579,6345,9686,12990,6345
7781,2454,288,166,2565,6345,9686,12990,6345
8148,2464,295,138,2521,6345,9686,12990,6345
7781,2460,251,240,2589,6345,9686,12990,6345
8148,2464,272,220,2535,6345,9686,12990,6345
8148,2457,302,330,2579,6345,9686,12990,6345
7781,2458,333,319,2555,6345,9686,12990,6345
8148,2460,305,365,2520,6345,9686,12990,6345
7781,2460,369,383,2580,6345,9686,12990,6345
8148,2462,323,362,2532,6345,9686,12990,6345
8148,2462,375,492,2572,6345,9686,12990,6345
7781,2464,362,446,2555,6345,9686,12990,6345
8148,2462,394,473,2517,6345,9686,12990,6345
7781,2459,408,413,2576,6345,9686,12990,6345
8148,2464,349,425,2534,6345,9686,12990,6345
8148,2467,360,358,2567,6345,9686,12990,6345
7781,2450,319,400,2551,6345,9686,12990,6345
8148,2455,329,462,2516,6345,9686,12990,6345
7781,2458,322,396,2575,6345,9686,12990,6345
8148,2463,362,430,2528,6345,9686,12990,6345
8148,2456,347,386,2566,6345,9686,12990,6345
7781,2460,348,435,2544,6345,9686,12990,6345
8148,2464,398,386,2511,6345,9686,12990,6345
7781,2458,377,458,2562,6345,9686,12990,6345
8148,2463,412,479,2528,6345,9686,12990,6345
8148,2456,437,507,2558,6345,9686,12990,6345
7781,2456,489,476,2539,6345,9686,12990,6345
8148,2459,438,486,2524,6345,9686,12990,6345
7781,2457,470,489,2586,6345,9686,12990,6345
8148,2460,476,410,2537,6345,9686,12990,6345
8148,2460,467,529,2576,6345,9686,12990,6345
7781,2461,460,486,2555,6345,9686,12990,6345
8148,2459,486,520,2518,6345,9686,12990,6345
7781,2462,522,462,2589,6345,9686,12990,6345
8148,2459,446,486,2535,6345,9686,12990,6345
7781,2462,456,425,2611,6345,9686,12990,6345
8148,2461,413,460,2558,6345,9686,12990,6345
8148,2464,441,508,2518,6345,9686,12990,6345
7781,2460,430,473,2578,6345,9686,12990,6345
8148,2461,460,525,2531,6345,9686,12990,6345
7781,2459,446,423,2606,6345,9686,12990,6345
8148,2466,424,547,2548,6345,9686,12990,6345
8148,2469,489,479,2516,6345,9686,12990,6345
7781,2451,454,519,2577,6345,9686,12990,6345
8148,2464,487,587,2529,6345,9686,12990,6345
7781,2459,483,575,2600,6345,9686,12990,6345
8148,2460,544,538,2545,6345,9686,12990,6345
8148,2464,493,519,2584,6345,9686,12990,6345
7781,2456,495,571,2562,6345,9686,12990,6345
8148,2458,524,494,2525,6345,9686,12990,6345
7781,2460,517,597,2596,6345,9686,12990,6345
8148,2459,497,552,2538,6345,9686,12990,6345
8148,2460,515,580,2578,6345,9686,12990,6345
7781,2459,573,546,2563,6345,9686,12990,6345
8148,2460,502,548,2523,6345,9686,12990,6345
7781,2459,504,510,2591,6345,9686,12990,6345
8148,2463,476,513,2542,6345,9686,12990,6345
8148,2458,507,569,2574,6345,9686,12990,6345
7781,2460,486,526,2558,6345,9686,12990,6345
8148,2461,501,560,2537,6345,9686,12990,6345
7781,2460,503,509,2611,6345,9686,12990,6345
8148,2462,458,552,2560,6345,9686,12990,6345
8148,2454,504,471,2598,6345,9686,12990,6345
7781,2458,462,507,2576,6345,9686,12990,6345
8148,2460,490,530,2531,6345,9686,12990,6345
7781,2458,460,481,2605,6345,9686,12990,6345
8148,2461,526,481,2549,6345,9686,12990,6345
8148,2458,481,429,2592,6345,9686,12990,6345
7781,2457,428,511,2575,6345,9686,12990,6345
8148,2464,454,399,2527,6345,9686,12990,6345
7781,2462,444,432,2599,6345,9686,12990,6345
8148,2461,422,445,2541,6345,9686,12990,6345
8148,2457,404,460,2589,6345,9686,12990,6345
7781,2452,473,416,2566,6345,9686,12990,6345
8148,2457,428,387,2527,6345,9686,12990,6345
7781,2462,433,448,2601,6345,9686,12990,6345
8148,2463,424,424,2542,6345,9686,12990,6345
8148,2461,455,471,2580,6345,9686,12990,6345
7781,2459,434,442,2561,6345,9686,12990,6345
8148,2458,448,465,2521,6345,9686,12990,6345
7781,2460,449,413,2587,6345,9686,12990,6345
8148,2457,413,449,2538,6345,9686,12990,6345
8148,2457,441,399,2576,6345,9686,12990,6345
7781,2456,421,422,2557,6345,9686,12990,6345
8148,2464,439,440,2521,6345,9686,12990,6345
7781,2448,397,392,2586,6345,9686,12990,6345
8148,2462,433,387,2536,6345,9686,12990,6345
8148,2461,419,341,2574,6345,9686,12990,6345
7781,2457,372,421,2550,6345,9686,12990,6345
8148,2460,414,370,2513,6345,9686,12990,6345
7781,2460,391,400,2577,6345,9686,12990,6345
8148,2459,455,433,2548,6345,9686,12990,6345
8148,2460,410,471,2592,6345,9686,12990,6345
7781,2462,485,451,2574,6345,9686,12990,6345
8148,2453,455,391,2529,6345,9686,12990,6345
7781,2462,422,481,2602,6345,9686,12990,6345
8148,2462,421,439,2544,6345,9686,12990,6345
8148,2464,446,470,2585,6345,9686,12990,6345
7781,2460,430,402,2563,6345,9686,12990,6345
8148,2462,406,429,2523,6345,9686,12990,6345
7781,2466,448,381,2593,6345,9686,12990,6345
8148,2459,370,388,2544,6345,9686,12990,6345
8148,2458,379,389,2583,6345,9686,12990,6345
7781,2459,389,386,2566,6345,9686,12990,6345
8148,2466,445,442,2522,6345,9686,12990,6345
7781,2464,435,433,2582,6345,9686,12990,6345
8148,2461,457,435,2539,6345,9686,12990,6345
8148,2458,467,391,2577,6345,9686,12990,6345
7781,2462,420,453,2554,6345,9686,12990,6345
8148,2459,453,391,2524,6345,9686,12990,6345
7781,2460,420,387,2584,6345,9686,12990,6345
8148,2461,479,386,2541,6345,9686,12990,6345
8148,2460,412,400,2567,6345,9686,12990,6345
7781,2455,458,386,2552,6345,9686,12990,6345
8148,2460,454,313,2514,6345,9686,12990,6345
7781,2460,400,391,2576,6345,9686,12990,6345
8148,2460,401,352,2532,6345,9686,12990,6345
8148,2453,420,391,2568,6345,9686,12990,6345
7781,2457,441,331,2557,6345,9686,12990,6345
8148,2459,378,357,2514,6345,9686,12990,6345
7781,2460,426,334,2576,6345,9686,12990,6345
8148,2459,352,340,2523,6345,9686,12990,6345
8148,2456,378,419,2560,6345,9686,12990,6345
7781,2455,378,392,2566,6345,9686,12990,6345
8148,2460,441,477,2525,6345,9686,12990,6345
7781,2464,457,462,2592,6345,9686,12990,6345
8148,2465,442,501,2542,6345,9686,12990,6345
8148,2461,471,435,2580,6345,9686,12990,6345
7781,2451,435,491,2563,6345,9686,12990,6345
8148,2460,463,545,2521,6345,9686,12990,6345
7781,2460,466,515,2592,6345,9686,12990,6345
8148,2462,541,576,2539,6345,9686,12990,6345
8148,2461,493,553,2576,6345,9686,12990,6345
7781,2460,514,557,2556,6345,9686,12990,6345
8148,2465,536,500,2523,6345,9686,12990,6345
7781,2462,487,548,2582,6345,9686,12990,6345
8148,2461,479,484,2536,6345,9686,12990,6345
8148,2460,483,518,2574,6345,9686,12990,6345
7781,2458,528,465,2558,6345,9686,12990,6345
8148,2461,443,471,2522,6345,9686,12990,6345
7781,2460,488,463,2576,6345,9686,12990,6345
8148,2463,426,407,2536,6345,9686,12990,6345
8148,2458,468,531,2566,6345,9686,12990,6345
7781,2458,465,485,2548,6345,9686,12990,6345
8148,2464,507,523,2514,6345,9686,12990,6345
7781,2464,555,485,2572,6345,9686,12990,6345
8148,2455,495,522,2528,6345,9686,12990,6345
8148,2460,544,465,2565,6345,9686,12990,6345
7781,2466,496,487,2549,6345,9686,12990,6345
8148,2462,516,489,2518,6345,9686,12990,6345
7781,2455,492,439,2567,6345,9686,12990,6345
8148,2462,548,484,2528,6345,9686,12990,6345
8148,2460,482,381,2558,6345,9686,12990,6345
7781,2457,451,451,2547,6345,9686,12990,6345
8148,2461,512,387,2513,6345,9686,12990,6345
7781,2454,481,432,2593,6345,9686,12990,6345
8148,2459,506,487,2542,6345,9686,12990,6345
8148,2456,518,500,2582,6345,9686,12990,6345
7781,2457,577,456,2554,6345,9686,12990,6345
8148,2464,518,470,2526,6345,9686,12990,6345
7781,2462,544,456,2586,6345,9686,12990,6345
8148,2460,552,418,2533,6345,9686,12990,6345
8148,2469,545,511,2577,6345,9686,12990,6345
7781,2459,512,472,2563,6345,9686,12990,6345
8148,2466,521,508,2520,6345,9686,12990,6345
7781,2455,581,467,2582,6345,9686,12990,6345
8148,2464,516,493,2538,6345,9686,12990,6345
8148,2455,536,464,2573,6345,9686,12990,6345
7781,2460,518,499,2548,6345,9686,12990,6345
8148,2467,570,565,2517,6345,9686,12990,6345
7781,2464,548,515,2574,6345,9686,12990,6345
8148,2459,577,531,2528,6345,9686,12990,6345
8148,2457,571,431,2569,6345,9686,12990,6345
7781,2455,520,497,2545,6345,9686,12990,6345
8148,2464,561,411,2514,6345,9686,12990,6345
7781,2454,504,431,2565,6345,9686,12990,6345
8148,2461,525,497,2528,6345,9686,12990,6345
7781,2462,522,491,2596,6345,9686,12990,6345
8148,2460,597,464,2546,6345,9686,12990,6345
8148,2460,566,417,2512,6345,9686,12990,6345
7781,2456,546,516,2563,6345,9686,12990,6345
8148,2459,620,450,2524,6345,9686,12990,6345
7781,2460,617,548,2587,6345,9686,12990,6345
8148,2455,600,535,2538,6345,9686,12990,6345
8148,2455,612,550,2576,6345,9686,12990,6345
7781,2455,653,504,2562,6345,9686,12990,6345
8148,2466,596,486,2522,6345,9686,12990,6345
7781,2460,591,497,2619,6345,9686,12990,6345
8148,2462,579,502,2550,6345,9686,12990,6345
8148,2460,620,540,2600,6345,9686,12990,6345
7781,2457,594,492,2583,6345,9686,12990,6345
8148,2462,609,522,2533,6345,9686,12990,6345
7781,2456,607,413,2609,6345,9686,12990,6345
8148,2460,550,483,2548,6345,9686,12990,6345
8148,2464,583,392,2596,6345,9686,12990,6345
7781,2459,553,421,2578,6345,9686,12990,6345
8148,2467,577,467,2530,6345,9686,12990,6345
7781,2467,547,464,2608,6345,9686,12990,6345
8148,2465,615,464,2551,6345,9686,12990,6345
8148,2461,593,411,2586,6345,9686,12990,6345
7781,2460,557,470,2569,6345,9686,12990,6345
8148,2466,581,388,2526,6345,9686,12990,6345
7781,2460,565,393,2598,6345,9686,12990,6345
8148,2459,560,382,2547,6345,9686,12990,6345
8148,2460,513,387,2583,6345,9686,12990,6345
7781,2456,589,361,2565,6345,9686,12990,6345
8148,2462,539,284,2523,6345,9686,12990,6345
7781,2463,499,370,2593,6345,9686,12990,6345
8148,2460,492,337,2537,6345,9686,12990,6345
8148,2464,505,378,2578,6345,9686,12990,6345
7781,2457,477,353,2559,6345,9686,12990,6345
8148,2460,471,348,2524,6345,9686,12990,6345
7781,2457,500,340,2588,6345,9686,12990,6345
8148,2459,480,398,2537,6345,9686,12990,6345
8148,2459,517,370,2579,6345,9686,12990,6345
7781,2457,511,376,2559,6345,9686,12990,6345
8148,2460,563,420,2517,6345,9686,12990,6345
7781,2456,519,377,2582,6345,9686,12990,6345
8148,2462,545,346,2538,6345,9686,12990,6345
8148,2460,522,254,2594,6345,9686,12990,6345
7781,2459,460,324,2574,6345,9686,12990,6345
8148,2458,476,236,2533,6345,9686,12990,6345
7781,2467,468,256,2601,6345,9686,12990,6345
8148,2460,490,276,2552,6345,9686,12990,6345
8148,2458,441,300,2593,6345,9686,12990,6345
7781,2460,500,281,2570,6345,9686,12990,6345
8148,2456,479,243,2531,6345,9686,12990,6345
7781,2459,463,340,2597,6345,9686,12990,6345
8148,2462,470,305,2546,6345,9686,12990,6345
8148,2462,511,348,2587,6345,9686,12990,6345
7781,2458,504,276,2566,6345,9686,12990,6345
8148,2459,456,295,2524,6345,9686,12990,6345
7781,2457,507,242,2594,6345,9686,12990,6345
8148,2462,417,249,2540,6345,9686,12990,6345
8148,2459,413,306,2583,6345,9686,12990,6345
7781,2455,386,230,2560,6345,9686,12990,6345
8148,2465,419,293,2525,6345,9686,12990,6345
7781,2462,399,289,2592,6345,9686,12990,6345
8148,2457,397,299,2538,6345,9686,12990,6345
8148,2462,415,264,2579,6345,9686,12990,6345
7781,2454,372,360,2557,6345,9686,12990,6345
8148,2467,402,367,2519,6345,9686,12990,6345
7781,2457,400,408,2585,6345,9686,12990,6345
8148,2459,464,458,2534,6345,9686,12990,6345
8148,2457,399,487,2569,6345,9686,12990,6345
7781,2445,433,499,2552,6345,9686,12990,6345
8148,2461,429,460,2516,6345,9686,12990,6345
7781,2459,398,558,2577,6345,9686,12990,6345
8148,2463,402,552,2526,6345,9686,12990,6345
8148,2460,445,606,2565,6345,9686,12990,6345
7781,2464,468,546,2547,6345,9686,12990,6345
8148,2461,400,532,2529,6345,9686,12990,6345
7781,2455,442,478,2593,6345,9686,12990,6345
8148,2459,367,456,2544,6345,9686,12990,6345
8148,2460,368,483,2584,6345,9686,12990,6345
7781,2455,337,400,2567,6345,9686,12990,6345
8148,2460,361,451,2531,6345,9686,12990,6345
7781,2453,363,394,2593,6345,9686,12990,6345
8148,2465,314,448,2542,6345,9686,12990,6345
8148,2460,359,380,2579,6345,9686,12990,6345
7781,2460,331,432,2557,6345,9686,12990,6345
8148,2460,369,514,2523,6345,9686,12990,6345
7781,2462,378,467,2586,6345,9686,12990,6345
8148,2458,462,495,2534,6345,9686,12990,6345
8148,2453,420,474,2578,6345,9686,12990,6345
7781,2455,425,498,2559,6345,9686,12990,6345
8148,2467,449,409,2519,6345,9686,12990,6345
7781,2458,397,440,2580,6345,9686,12990,6345
8148,2465,390,431,2534,6345,9686,12990,6345
8148,2456,381,418,2568,6345,9686,12990,6345
7781,2456,405,360,2549,6345,9686,12990,6345
8148,2460,317,347,2518,6345,9686,12990,6345
7781,2461,343,324,2581,6345,9686,12990,6345
8148,2464,284,284,2534,6345,9686,12990,6345
8148,2457,324,383,2566,6345,9686,12990,6345
7781,2450,327,381,2546,6345,9686,12990,6345
8148,2457,384,439,2519,6345,9686,12990,6345
7781,2457,422,410,2570,6345,9686,12990,6345
8148,2459,354,435,2529,6345,9686,12990,6345
8148,2456,401,365,2563,6345,9686,12990,6345
7781,2453,370,419,2550,6345,9686,12990,6345
8148,2458,407,483,2511,6345,9686,12990,6345
7781,2455,404,453,2570,6345,9686,12990,6345
8148,2454,453,497,2541,6345,9686,12990,6345
8148,2459,398,354,2582,6345,9686,12990,6345
7781,2460,358,442,2556,6345,9686,12990,6345
8148,2462,391,330,2524,6345,9686,12990,6345
7781,2460,354,385,2594,6345,9686,12990,6345
8148,2460,383,457,2546,6345,9686,12990,6345
8148,2457,382,444,2577,6345,9686,12990,6345
7781,2453,430,406,2555,6345,9686,12990,6345
8148,2458,370,370,2524,6345,9686,12990,6345
7781,2461,354,380,2580,6345,9686,12990,6345
8148,2461,320,321,2537,6345,9686,12990,6345
