8148,2456,904,1452,2529,62980,88454,115103,62980
7781,2446,943,1433,2533,62980,88454,115103,62980
8148,2452,939,1343,2490,62980,88454,115103,62980
7781,2439,909,1396,2556,62980,88454,115103,62980
8148,2453,900,1345,2500,62980,88454,115103,62980
8148,2436,892,1361,2539,62980,88454,115103,62980
7781,2451,888,1247,2517,62980,88454,115103,62980
8148,2446,826,1246,2501,62980,88454,115103,62980
7781,2456,857,1199,2539,62980,88454,115103,62980
8148,2442,799,1159,2507,62980,88454,115103,62980
8148,2457,821,1132,2527,62980,88454,115103,62980
7781,2443,802,1118,2517,62980,88454,115103,62980
8148,2455,860,1197,2494,62980,88454,115103,62980
7781,2440,823,1118,2539,62980,88454,115103,62980
8148,2447,847,1200,2508,62980,88454,115103,62980
8148,2452,886,1149,2520,62980,88454,115103,62980
7781,2451,875,1242,2531,62980,88454,115103,62980
8148,2452,877,1209,2482,62980,88454,115103,62980
7781,2445,911,1266,2543,8056,2451,835,830,2532,62980,87326,113975,62980
7965,2445,779,704,2541,62980,87326,113975,62980
7965,2454,793,708,2497,62980,87326,113975,62980
7965,2455,800,710,2498,62980,87326,113975,62980
7965,2455,759,707,2510,62980,87326,113975,62980
7965,2450,761,737,2513,62980,87326,113975,62980
7965,2451,784,730,2523,62980,87326,113975,62980
7965,2449,834,755,2529,62980,87326,113975,62980
7965,2451,831,766,2541,62980,87326,113975,62980
7965,2455,786,764,2548,62980,87326,113975,62980
8331,2450,775,754,2529,62980,87326,113975,62980
7965,2453,804,792,2528,62980,87326,113975,62980
7965,2449,833,856,2495,62980,87326,113975,62980
7965,2457,833,861,2495,62980,87326,113975,62980
7965,2445,798,864,2504,62980,87326,113975,62980
7965,2454,804,847,2503,62980,87326,113975,62980
7965,2446,809,843,2519,62980,87326,113975,62980
7965,2457,819,843,2518,62980,87326,113975,62980
7965,2447,821,836,2534,62980,87326,113975,62980
7965,2452,828,825,2537,62980,87326,113975,62980
8331,2443,820,821,2524,62980,87326,113975,62980
7965,2458,838,754,2527,62980,87326,113975,62980
7965,2450,860,739,2491,62980,87326,113975,62980
7965,2462,863,761,2504,62980,87326,113975,62980
7965,2452,822,755,2506,62980,87326,113975,62980
7965,2453,854,793,2519,62980,87326,113975,62980
7965,2453,880,822,2522,62980,87326,113975,62980
7965,2446,922,847,2534,62980,87326,113975,62980
7965,2451,892,845,2540,62980,87326,113975,62980
7965,2445,849,852,2548,62980,87326,113975,62980
8331,2453,855,850,2527,62980,87326,113975,62980
7965,2448,891,904,2537,62980,87326,113975,62980
7965,2451,881,883,2490,62980,87326,113975,62980
7965,2453,867,877,2507,62980,87326,113975,62980
7965,2454,840,858,2504,62980,87326,113975,62980
7965,2447,835,823,2513,62980,87326,113975,62980
7965,2452,816,794,2510,62980,87326,113975,62980
7965,2448,819,781,2532,62980,87326,113975,62980
7965,2456,826,776,2531,62980,87326,113975,62980
7965,2445,838,778,2550,62980,87326,113975,62980
8331,2452,840,739,2522,62980,87326,113975,62980
7965,2454,854,740,2537,62980,87326,113975,62980
7965,2452,873,736,2489,62980,87326,113975,62980
7965,2453,849,752,2496,62980,87326,113975,62980
7965,2457,837,769,2503,62980,87326,113975,62980
7965,2446,866,791,2507,62980,87326,113975,62980
7965,2452,925,830,2510,62980,87326,113975,62980
7965,2447,902,832,2521,62980,87326,113975,62980
7965,2451,852,862,2525,62980,87326,113975,62980
7965,2446,853,861,2538,62980,87326,113975,62980
7965,2455,890,906,2544,62980,87326,113975,62980
8331,2451,912,945,2524,62980,87326,113975,62980
7965,2452,907,950,2490,62980,87326,113975,62980
7965,2453,870,927,2489,62980,87326,113975,62980
7965,2458,881,915,2504,62980,87326,113975,62980
7965,2449,856,887,2511,62980,87326,113975,62980
7965,2455,873,892,2522,62980,87326,113975,62980
7965,2447,870,877,2525,62980,87326,113975,62980
7965,2449,879,874,2549,62980,87326,113975,62980
7965,2452,891,853,2546,62980,87326,113975,62980
7965,2456,890,822,2566,62980,87326,113975,62980
8331,2453,916,815,2534,62980,87326,113975,62980
7965,2451,920,827,2550,62980,87326,113975,62980
7965,2464,895,834,2496,62980,87326,113975,62980
7965,2450,897,851,2506,62980,87326,113975,62980
7965,2455,929,875,2507,62980,87326,113975,62980
7965,2450,958,880,2521,62980,87326,113975,62980
7965,2450,941,885,2517,62980,87326,113975,62980
7965,2449,885,896,2535,62980,87326,113975,62980
7965,2454,906,898,2537,62980,87326,113975,62980
7965,2443,937,893,2551,62980,87326,113975,62980
8331,2457,940,946,2527,62980,87326,113975,62980
7965,2457,919,940,2538,62980,87326,113975,62980
7965,2458,911,935,2489,62980,87326,113975,62980
7965,2453,908,885,2499,62980,87326,113975,62980
7965,2454,907,857,2502,62980,87326,113975,62980
7965,2447,904,912,2509,62980,87326,113975,62980
7965,2453,918,924,2515,62980,87326,113975,62980
7965,2447,916,905,2521,62980,87326,113975,62980
7965,2455,933,886,2532,62980,87326,113975,62980
7965,2447,937,909,2538,62980,87326,113975,62980
8331,2445,958,860,2525,62980,87326,113975,62980
7965,2454,940,849,2527,62980,87326,113975,62980
7965,2452,924,878,2494,62980,87326,113975,62980
7965,2468,927,896,2495,62980,87326,113975,62980
7965,2448,1005,962,2505,62980,87326,113975,62980
7965,2453,981,907,2508,62980,87326,113975,62980
7965,2441,915,917,2526,62980,87326,113975,62980
7965,2455,914,912,2531,62980,87326,113975,62980
7965,2445,918,917,2550,62980,87326,113975,62980
7965,2453,963,911,2549,62980,87326,113975,62980
8331,2445,940,966,2540,62980,87326,113975,62980
7965,2453,926,959,2537,62980,87326,113975,62980
7965,2455,927,928,2502,62980,87326,113975,62980
7965,2457,936,861,2498,62980,87326,113975,62980
7965,2448,920,861,2508,62980,87326,113975,62980
7965,2452,934,911,2512,62980,87326,113975,62980
7965,2447,927,909,2517,62980,87326,113975,62980
7965,2452,941,914,2526,62980,87326,113975,62980
7965,2445,952,892,2533,62980,87326,113975,62980
7965,2447,1014,918,2552,62980,87326,113975,62980
8331,2452,953,865,2527,62980,87326,113975,62980
7965,2453,919,856,2535,62980,87326,113975,62980
7965,2456,918,856,2488,62980,87326,113975,62980
7965,2460,934,929,2500,62980,87326,113975,62980
7965,2455,936,905,2500,62980,87326,113975,62980
7965,2449,936,846,2510,62980,87326,113975,62980
7965,2450,885,829,2514,62980,87326,113975,62980
7965,2448,884,840,2528,62980,87326,113975,62980
7965,2448,878,813,2532,62980,87326,113975,62980
7965,2448,871,808,2545,62980,87326,113975,62980
8331,2456,880,836,2522,62980,87326,113975,62980
7965,2445,853,828,2533,62980,87326,113975,62980
7965,2453,855,780,2486,62980,87326,113975,62980
7965,2448,858,733,2494,62980,87326,113975,62980
7965,2453,889,731,2503,62980,87326,113975,62980
7965,2453,827,782,2503,62980,87326,113975,62980
7965,2454,848,785,2507,62980,87326,113975,62980
7965,2445,858,770,2531,62980,87326,113975,62980
7965,2452,904,820,2540,62980,87326,113975,62980
7965,2449,929,821,2554,62980,87326,113975,62980
7965,2453,874,792,2562,62980,87326,113975,62980
8331,2443,850,804,2536,62980,87326,113975,62980
7965,2459,879,860,2491,62980,87326,113975,62980
7965,2445,907,907,2500,62980,87326,113975,62980
7965,2467,908,920,2504,62980,87326,113975,62980
7965,2456,866,857,2507,62980,87326,113975,62980
7965,2453,885,875,2518,62980,87326,113975,62980
7965,2449,884,875,2523,62980,87326,113975,62980
7965,2451,893,879,2533,62980,87326,113975,62980
7965,2442,908,879,2539,62980,87326,113975,62980
7965,2454,908,942,2562,62980,87326,113975,62980
8331,2457,915,921,2528,62980,87326,113975,62980
7965,2449,925,856,2545,62980,87326,113975,62980
7965,2457,950,843,2493,62980,87326,113975,62980
7965,2460,944,840,2504,62980,87326,113975,62980
7965,2452,902,882,2508,62980,87326,113975,62980
7965,2449,914,859,2517,62980,87326,113975,62980
7965,2454,938,852,2523,62980,87326,113975,62980
7965,2445,994,868,2530,62980,87326,113975,62980
7965,2453,994,885,2531,62980,87326,113975,62980
7965,2450,923,895,2550,62980,87326,113975,62980
8331,2445,939,892,2522,62980,87326,113975,62980
7965,2445,949,959,2537,62980,87326,113975,62980
7965,2458,966,960,2486,62980,87326,113975,62980
7965,2456,938,935,2501,62980,87326,113975,62980
7965,2455,914,921,2501,62980,87326,113975,62980
7965,2446,901,884,2509,62980,87326,113975,62980
7965,2456,905,873,2515,62980,87326,113975,62980
7965,2454,900,842,2519,62980,87326,113975,62980
7965,2450,915,863,2549,62980,87326,113975,62980
7965,2450,902,852,2556,62980,87326,113975,62980
8331,2453,919,867,2534,62980,87326,113975,62980
7965,2452,920,811,2544,62980,87326,113975,62980
7965,2449,953,814,2503,62980,87326,113975,62980
7965,2460,930,801,2497,62980,87326,113975,62980
7965,2457,908,816,2513,62980,87326,113975,62980
7965,2443,917,809,2512,62980,87326,113975,62980
7965,2454,950,858,2528,62980,87326,113975,62980
7965,2450,974,854,2531,62980,87326,113975,62980
7965,2448,946,855,2548,62980,87326,113975,62980
7965,2458,916,858,2545,62980,87326,113975,62980
8331,2448,933,871,2537,62980,87326,113975,62980
7965,2452,980,956,2536,62980,87326,113975,62980
7965,2447,987,969,2494,62980,87326,113975,62980
7965,2453,966,969,2497,62980,87326,113975,62980
7965,2446,946,959,2506,62980,87326,113975,62980
7965,2455,966,962,2511,62980,87326,113975,62980
7965,2446,971,943,2526,62980,87326,113975,62980
7965,2454,973,945,2526,62980,87326,113975,62980
7965,2444,969,937,2535,62980,87326,113975,62980
7965,2448,990,942,2546,62980,87326,113975,62980
8331,2453,974,866,2522,62980,87326,113975,62980
7965,2461,1012,865,2529,62980,87326,113975,62980
7965,2452,1004,858,2495,62980,87326,113975,62980
7965,2452,992,875,2494,62980,87326,113975,62980
7965,2453,967,870,2500,62980,87326,113975,62980
7965,2458,1007,889,2506,62980,87326,113975,62980
7965,2449,1046,916,2514,62980,87326,113975,62980
7965,2450,1038,918,2519,62980,87326,113975,62980
7965,2449,958,920,2524,62980,87326,113975,62980
7965,2446,970,931,2537,62980,87326,113975,62980
8331,2455,995,979,2530,62980,87326,113975,62980
7965,2452,1007,978,2544,62980,87326,113975,62980
7965,2444,1005,969,2491,62980,87326,113975,62980
7965,2451,982,960,2503,62980,87326,113975,62980
7965,2454,983,918,2500,62980,87326,113975,62980
7965,2449,979,929,2512,62980,87326,113975,62980
7965,2454,983,927,2514,62980,87326,113975,62980
7965,2448,983,931,2528,62980,87326,113975,62980
7965,2457,998,934,2537,62980,87326,113975,62980
7965,2446,1008,925,2552,62980,87326,113975,62980
7965,2455,1016,899,2556,62980,87326,113975,62980
8331,2450,1041,907,2535,62980,87326,113975,62980
7965,2453,1036,916,2485,62980,87326,113975,62980
7965,2451,1001,923,2502,62980,87326,113975,62980
7965,2469,1019,950,2501,62980,87326,113975,62980
7965,2448,1034,957,2507,62980,87326,113975,62980
7965,2457,1075,950,2516,62980,87326,113975,62980
7965,2447,1028,925,2522,62980,87326,113975,62980
7965,2447,1003,939,2532,62980,87326,113975,62980
7965,2442,992,939,2542,62980,87326,113975,62980
7965,2453,1045,1007,2557,62980,87326,113975,62980
8331,2453,1041,995,2524,62980,87326,113975,62980
7965,2453,1011,999,2536,62980,87326,113975,62980
7965,2460,1016,981,2488,62980,87326,113975,62980
7965,2454,1025,952,2497,62980,87326,113975,62980
7965,2450,1002,964,2502,62980,87326,113975,62980
7965,2445,1023,976,2508,62980,87326,113975,62980
7965,2451,1023,953,2512,62980,87326,113975,62980
7965,2449,1040,954,2528,62980,87326,113975,62980
7965,2454,1045,903,2531,62980,87326,113975,62980
7965,2448,1057,940,2543,62980,87326,113975,62980
8331,2449,1061,883,2521,62980,87326,113975,62980
7965,2450,1047,893,2552,62980,87326,113975,62980
7965,2453,1040,914,2496,62980,87326,113975,62980
7965,2445,1047,967,2509,62980,87326,113975,62980
7965,2455,1113,1016,2512,62980,87326,113975,62980
7965,2445,1088,962,2516,62980,87326,113975,62980
7965,2454,1018,948,2524,62980,87326,113975,62980
7965,2449,1005,933,2531,62980,87326,113975,62980
7965,2453,1013,931,2541,62980,87326,113975,62980
7965,2446,1037,882,2556,62980,87326,113975,62980
8331,2449,1019,927,2530,62980,87326,113975,62980
7965,2445,996,897,2540,62980,87326,113975,62980
7965,2456,1011,878,2501,62980,87326,113975,62980
7965,2465,1004,801,2495,62980,87326,113975,62980
7965,2449,979,810,2508,62980,87326,113975,62980
7965,2448,978,853,2513,62980,87326,113975,62980
7965,2449,982,835,2524,62980,87326,113975,62980
7965,2450,972,794,2527,62980,87326,113975,62980
7965,2448,1002,785,2534,62980,87326,113975,62980
7965,2448,974,785,2543,62980,87326,113975,62980
8331,2450,956,726,2534,62980,87326,113975,62980
7965,2456,918,725,2531,62980,87326,113975,62980
7965,2449,930,742,2498,62980,87326,113975,62980
7965,2457,941,824,2500,62980,87326,113975,62980
7965,2450,965,838,2507,62980,87326,113975,62980
7965,2449,964,803,2508,62980,87326,113975,62980
7965,2445,938,819,2519,62980,87326,113975,62980
7965,2459,948,837,2518,62980,87326,113975,62980
7965,2443,956,838,2532,62980,87326,113975,62980
7965,2451,971,831,2540,62980,87326,113975,62980
8331,2448,957,894,2525,62980,87326,113975,62980
7965,2456,970,879,2522,62980,87326,113975,62980
7965,2450,976,833,2489,62980,87326,113975,62980
7965,2457,995,804,2505,62980,87326,113975,62980
7965,2449,1016,824,2509,62980,87326,113975,62980
7965,2456,988,886,2512,62980,87326,113975,62980
7965,2449,991,891,2522,62980,87326,113975,62980
7965,2450,1016,881,2525,62980,87326,113975,62980
7965,2445,1085,915,2539,62980,87326,113975,62980
7965,2450,1080,920,2550,62980,87326,113975,62980
8331,2455,1015,852,2530,62980,87326,113975,62980
7965,2455,1010,870,2539,62980,87326,113975,62980
7965,2456,1008,897,2492,62980,87326,113975,62980
7965,2451,1038,939,2500,62980,87326,113975,62980
7965,2450,1029,945,2500,62980,87326,113975,62980
7965,2449,994,906,2514,62980,87326,113975,62980
7965,2450,1008,911,2513,62980,87326,113975,62980
7965,2451,1019,943,2529,62980,87326,113975,62980
7965,2453,1022,909,2532,62980,87326,113975,62980
7965,2453,1036,931,2552,62980,87326,113975,62980
7965,2457,1041,968,2546,62980,87326,113975,62980
8331,2442,1042,951,2534,62980,87326,113975,62980
7965,2462,1052,870,2537,62980,87326,113975,62980
7965,2453,1079,875,2497,62980,87326,113975,62980
7965,2457,1068,860,2496,62980,87326,113975,62980
7965,2452,1033,905,2502,62980,87326,113975,62980
7965,2457,1044,889,2509,62980,87326,113975,62980
7965,2450,1057,896,2517,62980,87326,113975,62980
7965,2452,1110,918,2530,62980,87326,113975,62980
7965,2444,1082,915,2539,62980,87326,113975,62980
7965,2451,1029,882,2551,62980,87326,113975,62980
8331,2445,1029,899,2524,62980,87326,113975,62980
7965,2458,1074,973,2532,62980,87326,113975,62980
7965,2453,1060,968,2492,62980,87326,113975,62980
7965,2465,1054,979,2490,62980,87326,113975,62980
7965,2451,1027,947,2513,62980,87326,113975,62980
7965,2456,1034,971,2520,62980,87326,113975,62980
7965,2451,1047,960,2522,62980,87326,113975,62980
7965,2446,1060,979,2532,62980,87326,113975,62980
7965,2450,1075,973,2541,62980,87326,113975,62980
7965,2450,1069,971,2561,62980,87326,113975,62980
8331,2445,1075,965,2528,62980,87326,113975,62980
7965,2452,1090,922,2547,62980,87326,113975,62980
7965,2460,1114,915,2493,62980,87326,113975,62980
7965,2451,1104,942,2504,62980,87326,113975,62980
7965,2456,1084,940,2503,62980,87326,113975,62980
7965,2444,1103,960,2513,62980,87326,113975,62980
7965,2458,1163,996,2523,62980,87326,113975,62980
7965,2446,1160,1003,2530,62980,87326,113975,62980
7965,2453,1121,982,2534,62980,87326,113975,62980
7965,2453,1079,974,2552,62980,87326,113975,62980
8331,2450,1099,986,2526,62980,87326,113975,62980
7965,2453,1116,1029,2540,62980,87326,113975,62980
7965,2457,1120,1025,2491,62980,87326,113975,62980
7965,2451,1082,1023,2497,62980,87326,113975,62980
7965,2454,1080,1014,2505,62980,87326,113975,62980
7965,2448,1082,1021,2513,62980,87326,113975,62980
7965,2453,1088,1009,2515,62980,87326,113975,62980
7965,2448,1090,1031,2528,62980,87326,113975,62980
7965,2446,1118,1047,2534,62980,87326,113975,62980
7965,2448,1113,1029,2542,62980,87326,113975,62980
8331,2459,1130,997,2527,62980,87326,113975,62980
7965,2449,1158,998,2524,62980,87326,113975,62980
7965,2456,1166,1008,2492,62980,87326,113975,62980
7965,2453,1144,1005,2492,62980,87326,113975,62980
7965,2450,1130,1025,2506,62980,87326,113975,62980
7965,2448,1163,1033,2501,62980,87326,113975,62980
7965,2452,1190,1047,2525,62980,87326,113975,62980
7965,2449,1180,1046,2531,62980,87326,113975,62980
7965,2443,1122,1043,2544,62980,87326,113975,62980
7965,2453,1130,1035,2549,62980,87326,113975,62980
8331,2444,1178,1099,2539,62980,87326,113975,62980
7965,2453,1188,1104,2536,62980,87326,113975,62980
7965,2451,1171,1104,2501,62980,87326,113975,62980
7965,2460,1159,1093,2498,62980,87326,113975,62980
7965,2449,1157,1053,2503,62980,87326,113975,62980
7965,2457,1151,1055,2508,62980,87326,113975,62980
7965,2450,1146,1052,2519,62980,87326,113975,62980
7965,2448,1149,1039,2524,62980,87326,113975,62980
7965,2449,1155,1034,2535,62980,87326,113975,62980
7965,2445,1178,1022,2542,62980,87326,113975,62980
8331,2448,1176,981,2527,62980,87326,113975,62980
7965,2460,1205,995,2532,62980,87326,113975,62980
7965,2457,1193,993,2491,62980,87326,113975,62980
7965,2457,1181,1010,2496,62980,87326,113975,62980
7965,2449,1186,1029,2501,62980,87326,113975,62980
7965,2451,1257,1044,2515,62980,87326,113975,62980
7965,2451,1238,1036,2507,62980,87326,113975,62980
7965,2451,1209,1053,2529,62980,87326,113975,62980
7965,2450,1171,1041,2524,62980,87326,113975,62980
7965,2453,1185,1050,2540,62980,87326,113975,62980
7965,2456,1223,1103,2550,62980,87326,113975,62980
8331,2455,1225,1110,2528,62980,87326,113975,62980
7965,2458,1206,1114,2531,62980,87326,113975,62980
7965,2453,1217,1095,2497,62980,87326,113975,62980
7965,2464,1235,1039,2490,62980,87326,113975,62980
7965,2446,1223,1114,2505,62980,87326,113975,62980
7965,2452,1230,1110,2504,62980,87326,113975,62980
7965,2446,1234,1110,2527,62980,87326,113975,62980
7965,2456,1236,1094,2534,62980,87326,113975,62980
7965,2442,1258,1080,2551,62980,87326,113975,62980
7965,2457,1272,1056,2556,62980,87326,113975,62980
8331,2450,1255,1052,2535,62980,87326,113975,62980
7965,2457,1244,1035,2546,62980,87326,113975,62980
7965,2453,1222,1054,2495,62980,87326,113975,62980
7965,2459,1235,1084,2502,62980,87326,113975,62980
7965,2452,1275,1073,2508,62980,87326,113975,62980
7965,2449,1254,1074,2518,62980,87326,113975,62980
7965,2449,1183,1057,2529,62980,87326,113975,62980
7965,2453,1188,1055,2528,62980,87326,113975,62980
7965,2441,1176,1034,2542,62980,87326,113975,62980
7965,2453,1213,1036,2555,62980,87326,113975,62980
8331,2453,1181,1049,2527,62980,87326,113975,62980
7965,2452,1161,1045,2542,62980,87326,113975,62980
7965,2452,1161,1001,2491,62980,87326,113975,62980
7995,2450,1169,927,2500,62980,87185,113881,62980
7965,2458,942,690,2499,62980,87185,113881,62980
7965,2455,908,766,2509,62980,87185,113881,62980
7965,2457,907,745,2513,62980,87185,113881,62980
7965,2446,943,757,2526,62980,87185,113881,62980
7965,2455,1010,794,2525,62980,87185,113881,62980
7965,2450,1005,814,2542,62980,87185,113881,62980
7965,2456,961,813,2545,62980,87185,113881,62980
8331,2445,948,793,2529,62980,87185,113881,62980
7965,2456,966,835,2533,62980,87185,113881,62980
7965,2452,988,892,2497,62980,87185,113881,62980
7965,2459,984,885,2496,62980,87185,113881,62980
7965,2448,943,887,2503,62980,87185,113881,62980
7965,2450,950,855,2503,62980,87185,113881,62980
7965,2445,951,860,2516,62980,87185,113881,62980
7965,2452,972,872,2519,62980,87185,113881,62980
7965,2447,969,869,2545,62980,87185,113881,62980
7965,2460,975,885,2556,62980,87185,113881,62980
8331,2447,974,896,2534,62980,87185,113881,62980
7965,2459,999,848,2545,62980,87185,113881,62980
7965,2445,1032,847,2498,62980,87185,113881,62980
7965,2461,1030,845,2503,62980,87185,113881,62980
7965,2456,979,847,2507,62980,87185,113881,62980
7965,2455,1000,884,2517,62980,87185,113881,62980
7965,2452,1026,862,2521,62980,87185,113881,62980
7965,2448,1064,893,2532,62980,87185,113881,62980
7965,2449,1029,875,2534,62980,87185,113881,62980
7965,2449,990,882,2551,62980,87185,113881,62980
8331,2446,992,875,2528,62980,87185,113881,62980
7965,2447,1038,945,2543,62980,87185,113881,62980
7965,2453,1032,949,2491,62980,87185,113881,62980
7965,2452,1018,941,2503,62980,87185,113881,62980
7965,2455,1005,921,2499,62980,87185,113881,62980
7965,2447,996,908,2518,62980,87185,113881,62980
7965,2462,991,900,2517,62980,87185,113881,62980
7965,2446,986,905,2526,62980,87185,113881,62980
7965,2453,998,894,2531,62980,87185,113881,62980
7965,2447,1001,878,2549,62980,87185,113881,62980
8331,2458,996,833,2527,62980,87185,113881,62980
7965,2453,1010,834,2530,62980,87185,113881,62980
7965,2463,1034,830,2486,62980,87185,113881,62980
7965,2454,1012,844,2494,62980,87185,113881,62980
7965,2453,1002,868,2504,62980,87185,113881,62980
7965,2453,1017,884,2506,62980,87185,113881,62980
7965,2450,1088,937,2511,62980,87185,113881,62980
7965,2452,1074,920,2519,62980,87185,113881,62980
7965,2450,1041,931,2531,62980,87185,113881,62980
7965,2444,997,921,2532,62980,87185,113881,62980
8331,2457,1024,943,2533,62980,87185,113881,62980
7965,2452,1044,969,2537,62980,87185,113881,62980
7965,2453,1045,978,2497,62980,87185,113881,62980
7965,2457,1015,960,2492,62980,87185,113881,62980
7965,2449,1022,955,2510,62980,87185,113881,62980
7965,2451,1013,919,2512,62980,87185,113881,62980
7965,2445,1023,933,2517,62980,87185,113881,62980
7965,2454,1023,920,2520,62980,87185,113881,62980
7965,2445,1023,917,2543,62980,87185,113881,62980
7965,2445,1036,898,2535,62980,87185,113881,62980
7965,2447,1036,872,2562,62980,87185,113881,62980
8331,2453,1065,869,2527,62980,87185,113881,62980
7965,2460,1063,866,2542,62980,87185,113881,62980
7965,2457,1037,881,2492,62980,87185,113881,62980
7965,2456,1044,885,2503,62980,87185,113881,62980
7965,2457,1077,909,2510,62980,87185,113881,62980
7965,2447,1102,929,2515,62980,87185,113881,62980
7965,2454,1080,935,2524,62980,87185,113881,62980
7965,2447,1018,941,2531,62980,87185,113881,62980
7965,2453,1040,953,2539,62980,87185,113881,62980
7965,2444,1071,996,2552,62980,87185,113881,62980
8331,2445,1084,1005,2526,62980,87185,113881,62980
7965,2447,1064,971,2535,62980,87185,113881,62980
7965,2452,1038,951,2493,62980,87185,113881,62980
7965,2461,1030,900,2493,62980,87185,113881,62980
7965,2452,1008,903,2506,62980,87185,113881,62980
7965,2449,1009,881,2509,62980,87185,113881,62980
7965,2445,1006,879,2519,62980,87185,113881,62980
7965,2453,1013,868,2526,62980,87185,113881,62980
7965,2448,1030,836,2530,62980,87185,113881,62980
7965,2453,1031,875,2539,62980,87185,113881,62980
8331,2447,1044,849,2528,62980,87185,113881,62980
7965,2463,1046,859,2543,62980,87185,113881,62980
7965,2453,1034,878,2501,62980,87185,113881,62980
7965,2456,1047,937,2499,62980,87185,113881,62980
7965,2446,1111,992,2513,62980,87185,113881,62980
7965,2455,1101,945,2515,62980,87185,113881,62980
7965,2446,1066,934,2527,62980,87185,113881,62980
7965,2453,1033,913,2527,62980,87185,113881,62980
7965,2449,1019,894,2548,62980,87185,113881,62980
7965,2454,1048,873,2546,62980,87185,113881,62980
8331,2451,1023,911,2534,62980,87185,113881,62980
7965,2451,1003,880,2538,62980,87185,113881,62980
7965,2445,993,853,2492,62980,87185,113881,62980
7965,2455,1007,787,2496,62980,87185,113881,62980
7965,2447,993,770,2507,62980,87185,113881,62980
7965,2454,996,826,2511,62980,87185,113881,62980
7965,2446,982,803,2517,62980,87185,113881,62980
7965,2450,1000,792,2527,62980,87185,113881,62980
7965,2449,994,772,2528,62980,87185,113881,62980
7965,2450,1010,801,2548,62980,87185,113881,62980
8331,2453,988,735,2521,62980,87185,113881,62980
7965,2459,958,739,2537,62980,87185,113881,62980
7965,2452,972,751,2490,62980,87185,113881,62980
7965,2452,978,791,2498,62980,87185,113881,62980
7965,2453,984,799,2499,62980,87185,113881,62980
7965,2445,987,741,2505,62980,87185,113881,62980
7965,2456,916,723,2515,62980,87185,113881,62980
7965,2444,906,706,2529,62980,87185,113881,62980
7965,2457,905,700,2526,62980,87185,113881,62980
7965,2447,895,696,2547,62980,87185,113881,62980
8331,2455,923,751,2517,62980,87185,113881,62980
7965,2454,903,758,2533,62980,87185,113881,62980
7965,2458,939,766,2484,62980,87185,113881,62980
7965,2457,950,722,2502,62980,87185,113881,62980
7965,2457,989,738,2507,62980,87185,113881,62980
7965,2451,942,788,2516,62980,87185,113881,62980
7965,2451,951,785,2522,62980,87185,113881,62980
7965,2450,957,763,2527,62980,87185,113881,62980
7965,2453,997,800,2543,62980,87185,113881,62980
7965,2448,1023,799,2549,62980,87185,113881,62980
7965,2453,972,754,2568,62980,87185,113881,62980
8331,2457,958,776,2535,62980,87185,113881,62980
7965,2461,977,825,2493,62980,87185,113881,62980
7965,2460,994,863,2493,62980,87185,113881,62980
7965,2448,995,858,2510,62980,87185,113881,62980
7965,2451,976,802,2511,62980,87185,113881,62980
7965,2454,953,802,2518,62980,87185,113881,62980
7965,2450,954,803,2518,62980,87185,113881,62980
7965,2448,962,793,2539,62980,87185,113881,62980
7965,2445,977,785,2538,62980,87185,113881,62980
7965,2444,976,852,2566,62980,87185,113881,62980
8331,2451,986,828,2525,62980,87185,113881,62980
7965,2448,1000,767,2543,62980,87185,113881,62980
7965,2453,1030,771,2492,62980,87185,113881,62980
7965,2448,1040,776,2502,62980,87185,113881,62980
7965,2456,1001,816,2499,62980,87185,113881,62980
7965,2444,997,803,2514,62980,87185,113881,62980
7965,2454,1021,789,2512,62980,87185,113881,62980
7965,2448,1056,816,2528,62980,87185,113881,62980
7965,2453,1040,805,2537,62980,87185,113881,62980
7965,2450,964,755,2549,62980,87185,113881,62980
8331,2457,978,776,2524,62980,87185,113881,62980
7965,2445,990,834,2533,62980,87185,113881,62980
7965,2453,1024,881,2495,62980,87185,113881,62980
7965,2454,999,856,2499,62980,87185,113881,62980
7965,2454,966,819,2510,62980,87185,113881,62980
7965,2450,951,801,2516,62980,87185,113881,62980
7965,2453,959,794,2521,62980,87185,113881,62980
7965,2448,949,779,2536,62980,87185,113881,62980
7965,2448,951,769,2546,62980,87185,113881,62980
7965,2450,943,765,2556,62980,87185,113881,62980
8331,2451,956,788,2541,62980,87185,113881,62980
7965,2453,973,740,2540,62980,87185,113881,62980
7965,2457,1002,753,2501,62980,87185,113881,62980
7965,2461,994,766,2492,62980,87185,113881,62980
7965,2449,977,775,2510,62980,87185,113881,62980
7965,2453,980,754,2511,62980,87185,113881,62980
7965,2449,1003,788,2522,62980,87185,113881,62980
7965,2456,1030,765,2522,62980,87185,113881,62980
7965,2451,994,758,2545,62980,87185,113881,62980
7965,2454,944,755,2546,62980,87185,113881,62980
8331,2444,948,754,2530,62980,87185,113881,62980
7965,2451,987,808,2535,62980,87185,113881,62980
7965,2453,980,809,2492,62980,87185,113881,62980
7965,2463,950,824,2493,62980,87185,113881,62980
7965,2447,941,807,2507,62980,87185,113881,62980
7965,2452,951,799,2509,62980,87185,113881,62980
7965,2448,941,798,2519,62980,87185,113881,62980
7965,2446,965,802,2526,62980,87185,113881,62980
7965,2445,958,790,2533,62980,87185,113881,62980
7965,2451,956,781,2544,62980,87185,113881,62980
8331,2448,958,730,2524,62980,87185,113881,62980
7965,2460,973,728,2532,62980,87185,113881,62980
7965,2453,980,724,2482,62980,87185,113881,62980
7965,2445,971,733,2498,62980,87185,113881,62980
7965,2454,944,734,2499,62980,87185,113881,62980
7965,2448,976,755,2504,62980,87185,113881,62980
7965,2453,1022,772,2521,62980,87185,113881,62980
7965,2449,1006,774,2538,62980,87185,113881,62980
7965,2454,940,752,2539,62980,87185,113881,62980
7965,2447,938,730,2554,62980,87185,113881,62980
8331,2455,953,766,2531,62980,87185,113881,62980
7965,2450,970,758,2541,62980,87185,113881,62980
7965,2453,952,743,2494,62980,87185,113881,62980
7965,2453,934,738,2499,62980,87185,113881,62980
7965,2456,937,710,2501,62980,87185,113881,62980
7965,2451,928,707,2511,62980,87185,113881,62980
7965,2456,921,704,2513,62980,87185,113881,62980
7965,2443,917,705,2528,62980,87185,113881,62980
7965,2451,921,693,2536,62980,87185,113881,62980
7965,2448,920,657,2548,62980,87185,113881,62980
7965,2449,924,636,2551,62980,87185,113881,62980
8331,2448,945,614,2532,62980,87185,113881,62980
7965,2459,935,632,2490,62980,87185,113881,62980
7965,2444,904,626,2497,62980,87185,113881,62980
7965,2453,918,655,2503,62980,87185,113881,62980
7965,2451,924,657,2512,62980,87185,113881,62980
7965,2453,945,653,2516,62980,87185,113881,62980
7965,2448,899,623,2518,62980,87185,113881,62980
7965,2457,860,612,2534,62980,87185,113881,62980
7965,2449,849,589,2536,62980,87185,113881,62980
7965,2457,883,637,2557,62980,87185,113881,62980
8331,2451,864,619,2527,62980,87185,113881,62980
7965,2455,826,589,2538,62980,87185,113881,62980
7965,2460,823,574,2493,62980,87185,113881,62980
7965,2452,822,526,2503,62980,87185,113881,62980
7965,2456,808,548,2502,62980,87185,113881,62980
7965,2446,817,577,2512,62980,87185,113881,62980
7965,2449,830,571,2514,62980,87185,113881,62980
7965,2442,829,588,2543,62980,87185,113881,62980
7965,2449,857,573,2547,62980,87185,113881,62980
7965,2447,857,565,2561,62980,87185,113881,62980
8331,2457,886,579,2535,62980,87185,113881,62980
7965,2449,864,592,2552,62980,87185,113881,62980
7965,2453,859,597,2496,62980,87185,113881,62980
7965,2453,862,636,2502,62980,87185,113881,62980
7965,2456,913,635,2513,62980,87185,113881,62980
7965,2448,890,645,2518,62980,87185,113881,62980
7965,2451,850,659,2522,62980,87185,113881,62980
7965,2448,849,662,2537,62980,87185,113881,62980
7965,2453,856,687,2544,62980,87185,113881,62980
7965,2449,890,667,2553,62980,87185,113881,62980
8331,2453,894,719,2533,62980,87185,113881,62980
7965,2464,868,698,2538,62980,87185,113881,62980
7965,2454,885,677,2496,62980,87185,113881,62980
7965,2453,873,596,2497,62980,87185,113881,62980
7965,2454,862,595,2512,62980,87185,113881,62980
7965,2451,856,641,2507,62980,87185,113881,62980
7965,2453,871,649,2522,62980,87185,113881,62980
7965,2451,879,642,2522,62980,87185,113881,62980
7965,2453,907,647,2545,62980,87185,113881,62980
7965,2453,902,659,2543,62980,87185,113881,62980
8331,2453,897,617,2532,62980,87185,113881,62980
7965,2454,875,618,2529,62980,87185,113881,62980
7965,2452,877,637,2493,62980,87185,113881,62980
7965,2452,889,691,2496,62980,87185,113881,62980
7965,2449,920,689,2502,62980,87185,113881,62980
7965,2454,891,638,2498,62980,87185,113881,62980
7965,2441,827,619,2524,62980,87185,113881,62980
7965,2452,831,621,2518,62980,87185,113881,62980
7965,2448,831,618,2533,62980,87185,113881,62980
7965,2453,859,621,2559,62980,87185,113881,62980
8331,2448,830,658,2533,62980,87185,113881,62980
7965,2464,842,675,2542,62980,87185,113881,62980
7965,2451,840,615,2495,62980,87185,113881,62980
7965,2464,857,578,2503,62980,87185,113881,62980
7965,2449,868,561,2508,62980,87185,113881,62980
7965,2448,833,619,2515,62980,87185,113881,62980
7965,2446,842,612,2520,62980,87185,113881,62980
7965,2450,862,605,2535,62980,87185,113881,62980
7965,2450,915,635,2538,62980,87185,113881,62980
7965,2447,922,641,2552,62980,87185,113881,62980
8331,2450,857,581,2528,62980,87185,113881,62980
7965,2449,856,598,2540,62980,87185,113881,62980
7965,2455,859,621,2485,62980,87185,113881,62980
7965,2449,877,660,2499,62980,87185,113881,62980
7965,2457,865,642,2502,62980,87185,113881,62980
7965,2449,827,602,2511,62980,87185,113881,62980
7965,2453,830,593,2515,62980,87185,113881,62980
7965,2448,827,622,2528,62980,87185,113881,62980
7965,2455,831,595,2530,62980,87185,113881,62980
7965,2450,833,593,2550,62980,87185,113881,62980
7965,2449,831,625,2549,62980,87185,113881,62980
8239,2446,835,624,2502,62980,87185,113881,62980
7965,2457,826,611,2503,62980,87185,113881,62980
7965,2448,810,603,2516,62980,87185,113881,62980
7965,2451,826,585,2514,62980,87185,113881,62980
7965,2446,823,591,2524,62980,87185,113881,62980
7965,2454,834,590,2529,62980,87185,113881,62980
7965,2444,821,577,2542,62980,87185,113881,62980
8331,2453,837,546,2524,62980,87185,113881,62980
7965,2445,859,534,2524,62980,87185,113881,62980
7965,2456,872,558,2489,62980,87185,113881,62980
7965,2445,854,549,2501,62980,87185,113881,62980
7965,2456,839,561,2515,62980,87185,113881,62980
7965,2449,852,539,2518,62980,87185,113881,62980
7965,2449,886,557,2528,62980,87185,113881,62980
7965,2453,852,525,2529,62980,87185,113881,62980
7965,2451,790,530,2548,62980,87185,113881,62980
7965,2449,795,531,2548,62980,87185,113881,62980
8331,2450,820,597,2538,62980,87185,113881,62980
7873,2453,818,546,2503,62980,87185,113881,62980
7965,2451,875,551,2514,62980,87185,113881,62980
7965,2451,866,548,2510,62980,87185,113881,62980
7965,2444,805,545,2527,62980,87185,113881,62980
7965,2455,812,546,2532,62980,87185,113881,62980
7965,2444,800,533,2546,62980,87185,113881,62980
7965,2456,831,501,2549,62980,87185,113881,62980
8331,2453,801,541,2536,62980,87185,113881,62980
7873,2454,801,534,2505,62980,87185,113881,62980
7965,2450,754,503,2510,62980,87185,113881,62980
7965,2450,769,518,2516,62980,87185,113881,62980
7965,2444,774,538,2526,62980,87185,113881,62980
7965,2452,791,525,2533,62980,87185,113881,62980
7965,2445,789,511,2542,62980,87185,113881,62980
8331,2456,785,545,2526,62980,87185,113881,62980
7873,2451,766,515,2499,62980,87185,113881,62980
7965,2449,759,494,2503,62980,87185,113881,62980
7965,2446,742,488,2505,62980,87185,113881,62980
7965,2447,740,464,2518,62980,87185,113881,62980
7965,2448,730,443,2523,62980,87185,113881,62980
7965,2453,739,430,2540,62980,87185,113881,62980
7965,2449,719,405,2537,62980,87185,113881,62980
8331,2440,731,378,2526,62980,87185,113881,62980
7873,2451,732,406,2492,62980,87185,113881,62980
7965,2444,711,442,2513,62980,87185,113881,62980
7965,2452,721,428,2523,62980,87185,113881,62980
7965,2447,731,445,2532,62980,87185,113881,62980
7965,2447,737,445,2545,62980,87185,113881,62980
7965,2448,766,440,2551,62980,87185,113881,62980
7965,2450,773,442,2561,62980,87185,113881,62980
8331,2446,771,457,2540,62980,87185,113881,62980
7873,2453,746,463,2504,62980,87185,113881,62980
7965,2446,744,518,2517,62980,87185,113881,62980
7965,2453,769,521,2516,62980,87185,113881,62980
7965,2441,777,507,2531,62980,87185,113881,62980
7965,2454,842,539,2536,62980,87185,113881,62980
7965,2442,834,530,2554,62980,87185,113881,62980
8331,2452,791,520,2530,62980,87185,113881,62980
7965,2453,780,515,2539,62980,87185,113881,62980
7873,2454,785,552,2517,62980,87185,113881,62980
7965,2445,805,536,2513,62980,87185,113881,62980
7965,2452,865,583,2518,62980,87185,113881,62980
7965,2447,856,576,2529,62980,87185,113881,62980
7965,2453,836,591,2538,62980,87185,113881,62980
7965,2440,802,574,2543,62980,87185,113881,62980
8331,2445,815,593,2527,62980,87185,113881,62980
7965,2451,835,631,2534,62980,87185,113881,62980
7873,2452,879,600,2511,62980,87185,113881,62980
7965,2447,867,601,2512,62980,87185,113881,62980
7965,2447,839,599,2527,62980,87185,113881,62980
7965,2453,812,594,2525,62980,87185,113881,62980
7965,2446,818,602,2545,62980,87185,113881,62980
7965,2450,849,632,2549,62980,87185,113881,62980
8331,2446,845,643,2527,62980,87185,113881,62980
7873,2452,878,640,2502,62980,87185,113881,62980
7965,2444,839,596,2510,62980,87185,113881,62980
7965,2458,805,592,2522,62980,87185,113881,62980
7965,2444,797,596,2535,62980,87185,113881,62980
7965,2453,802,587,2541,62980,87185,113881,62980
7965,2451,823,604,2562,62980,87185,113881,62980
8331,2449,804,640,2536,62980,87185,113881,62980
7965,2455,809,631,2544,62980,87185,113881,62980
7873,2457,808,605,2515,62980,87185,113881,62980
7965,2453,805,594,2524,62980,87185,113881,62980
7965,2454,816,611,2528,62980,87185,113881,62980
7965,2446,823,599,2540,62980,87185,113881,62980
7965,2445,829,599,2544,62980,87185,113881,62980
7965,2455,831,635,2554,62980,87185,113881,62980
8331,2457,846,604,2535,62980,87185,113881,62980
7965,2456,860,564,2541,62980,87185,113881,62980
7873,2453,845,633,2514,62980,87185,113881,62980
7965,2448,850,636,2515,62980,87185,113881,62980
7965,2449,864,652,2533,62980,87185,113881,62980
7965,2449,870,644,2531,62980,87185,113881,62980
7965,2449,890,642,2548,62980,87185,113881,62980
8331,2458,891,609,2520,62980,87185,113881,62980
7965,2460,917,629,2535,62980,87185,113881,62980
7965,2456,905,627,2488,62980,87185,113881,62980
7873,2447,878,676,2513,62980,87185,113881,62980
7965,2452,894,672,2511,62980,87185,113881,62980
7965,2444,888,672,2532,62980,87185,113881,62980
7965,2449,922,669,2535,62980,87185,113881,62980
7965,2450,915,687,2545,62980,87185,113881,62980
8331,2458,915,643,2525,62980,87185,113881,62980
7965,2451,883,653,2534,62980,87185,113881,62980
7965,2460,904,678,2492,62980,87185,113881,62980
7873,2448,900,675,2511,62980,87185,113881,62980
7965,2453,930,668,2521,62980,87185,113881,62980
7965,2450,945,678,2546,62980,87185,113881,62980
7965,2456,934,671,2552,62980,87185,113881,62980
7965,2446,876,640,2569,62980,87185,113881,62980
8331,2457,895,672,2536,62980,87185,113881,62980
7965,2448,928,733,2490,62980,87185,113881,62980
7873,2450,930,688,2515,62980,87185,113881,62980
7965,2446,955,704,2524,62980,87185,113881,62980
7995,2451,924,711,2530,62980,87091,113975,62980
7965,2445,900,958,2529,62980,87091,113975,62980
7965,2451,910,978,2547,62980,87091,113975,62980
7965,2453,938,960,2553,62980,87091,113975,62980
8331,2446,941,1023,2533,62980,87091,113975,62980
7965,2458,916,1009,2538,62980,87091,113975,62980
7965,2445,918,997,2493,62980,87091,113975,62980
7873,2453,907,975,2513,62980,87091,113975,62980
7965,2446,910,985,2524,62980,87091,113975,62980
7965,2454,914,970,2531,62980,87091,113975,62980
7965,2442,919,961,2544,62980,87091,113975,62980
7965,2452,912,995,2542,62980,87091,113975,62980
8331,2445,910,971,2535,62980,87091,113975,62980
7965,2454,926,934,2535,62980,87091,113975,62980
7965,2446,934,912,2496,62980,87091,113975,62980
7873,2457,918,970,2513,62980,87091,113975,62980
7965,2446,909,969,2529,62980,87091,113975,62980
7965,2451,923,974,2528,62980,87091,113975,62980
7965,2447,916,953,2541,62980,87091,113975,62980
8331,2453,931,961,2519,62980,87091,113975,62980
7965,2450,938,915,2525,62980,87091,113975,62980
7965,2451,964,928,2490,62980,87091,113975,62980
7965,2456,950,917,2490,62980,87091,113975,62980
7873,2457,929,972,2519,62980,87091,113975,62980
7965,2445,928,955,2520,62980,87091,113975,62980
7965,2450,948,951,2552,62980,87091,113975,62980
7965,2442,945,918,2560,62980,87091,113975,62980
8331,2449,973,919,2542,62980,87091,113975,62980
7965,2457,961,926,2544,62980,87091,113975,62980
7965,2447,944,929,2505,62980,87091,113975,62980
7965,2458,952,945,2501,62980,87091,113975,62980
7873,2450,958,945,2532,62980,87091,113975,62980
7965,2455,988,936,2537,62980,87091,113975,62980
7965,2450,1026,952,2548,62980,87091,113975,62980
8331,2445,969,897,2520,62980,87091,113975,62980
7965,2450,945,907,2539,62980,87091,113975,62980
7965,2454,955,927,2481,62980,87091,113975,62980
7965,2459,971,992,2497,62980,87091,113975,62980
7873,2450,983,924,2518,62980,87091,113975,62980
7965,2449,1023,943,2530,62980,87091,113975,62980
7965,2455,999,945,2536,62980,87091,113975,62980
7965,2445,933,927,2549,62980,87091,113975,62980
8331,2451,937,900,2527,62980,87091,113975,62980
7965,2456,951,952,2537,62980,87091,113975,62980
7965,2457,943,946,2491,62980,87091,113975,62980
7965,2453,920,931,2500,62980,87091,113975,62980
7873,2454,945,888,2522,62980,87091,113975,62980
7965,2451,885,886,2524,62980,87091,113975,62980
7965,2453,886,879,2537,62980,87091,113975,62980
7965,2445,924,931,2543,62980,87091,113975,62980
8331,2453,936,939,2525,62980,87091,113975,62980
7965,2454,916,943,2529,62980,87091,113975,62980
7965,2454,911,950,2492,62980,87091,113975,62980
7965,2456,923,920,2498,62980,87091,113975,62980
7873,2452,913,948,2523,62980,87091,113975,62980
7965,2455,936,952,2522,62980,87091,113975,62980
7965,2446,937,965,2542,62980,87091,113975,62980
8331,2451,956,1027,2528,62980,87091,113975,62980
7965,2448,958,1019,2546,62980,87091,113975,62980
7965,2456,970,1008,2491,62980,87091,113975,62980
7965,2453,986,951,2507,62980,87091,113975,62980
7965,2457,1020,962,2503,62980,87091,113975,62980
7873,2451,971,1025,2539,62980,87091,113975,62980
7965,2449,986,1021,2536,62980,87091,113975,62980
7965,2447,975,1028,2556,62980,87091,113975,62980
8331,2451,989,1045,2531,62980,87091,113975,62980
7965,2453,988,984,2542,62980,87091,113975,62980
7965,2452,1027,986,2494,62980,87091,113975,62980
7965,2453,1015,990,2499,62980,87091,113975,62980
7965,2455,985,996,2506,62980,87091,113975,62980
7873,2444,990,1034,2536,62980,87091,113975,62980
7965,2453,1010,1028,2546,62980,87091,113975,62980
7965,2449,1002,990,2558,62980,87091,113975,62980
8331,2464,1032,986,2532,62980,87091,113975,62980
7965,2456,1028,987,2490,62980,87091,113975,62980
7965,2451,1000,1023,2497,62980,87091,113975,62980
7965,2451,1002,1032,2497,62980,87091,113975,62980
7873,2457,1018,1063,2530,62980,87091,113975,62980
7965,2455,1033,1034,2530,62980,87091,113975,62980
7965,2450,1047,1064,2545,62980,87091,113975,62980
8331,2444,1037,1008,2518,62980,87091,113975,62980
7965,2445,1010,1008,2535,62980,87091,113975,62980
7965,2458,1021,1023,2486,62980,87091,113975,62980
7965,2453,1043,1073,2499,62980,87091,113975,62980
7965,2452,1088,1115,2496,62980,87091,113975,62980
7873,2443,1101,1071,2525,62980,87091,113975,62980
7965,2455,1088,1060,2531,62980,87091,113975,62980
7965,2444,1030,1030,2546,62980,87091,113975,62980
8331,2447,1023,1045,2523,62980,87091,113975,62980
7965,2452,1034,1079,2550,62980,87091,113975,62980
7965,2460,1064,1132,2494,62980,87091,113975,62980
7965,2449,1044,1133,2510,62980,87091,113975,62980
7965,2452,1023,1101,2515,62980,87091,113975,62980
7873,2450,1059,1082,2540,62980,87091,113975,62980
7965,2445,1042,1099,2551,62980,87091,113975,62980
8331,2451,1051,1112,2531,62980,87091,113975,62980
7965,2452,1083,1168,2538,62980,87091,113975,62980
7965,2453,1078,1161,2497,62980,87091,113975,62980
7965,2453,1058,1159,2502,62980,87091,113975,62980
7965,2448,1059,1152,2507,62980,87091,113975,62980
7965,2454,1058,1151,2510,62980,87091,113975,62980
7873,2448,1058,1142,2539,62980,87091,113975,62980
7965,2453,1100,1155,2552,62980,87091,113975,62980
8331,2459,1084,1188,2523,62980,87091,113975,62980
7965,2448,1067,1190,2541,62980,87091,113975,62980
7965,2452,1068,1157,2488,62980,87091,113975,62980
7965,2451,1079,1067,2498,62980,87091,113975,62980
7965,2458,1045,1041,2500,62980,87091,113975,62980
7965,2452,1053,1096,2515,62980,87091,113975,62980
7873,2447,1063,1090,2534,62980,87091,113975,62980
7965,2447,1052,1124,2559,62980,87091,113975,62980
8331,2454,1058,1090,2522,62980,87091,113975,62980
7965,2452,1063,1018,2492,62980,87091,113975,62980
7965,2457,1089,1001,2494,62980,87091,113975,62980
7965,2458,1090,999,2500,62980,87091,113975,62980
7965,2451,1062,1048,2505,62980,87091,113975,62980
7965,2442,1070,1039,2508,62980,87091,113975,62980
7873,2451,1073,1047,2543,62980,87091,113975,62980
8331,2441,1075,1011,2523,62980,87091,113975,62980
7965,2457,1107,1023,2532,62980,87091,113975,62980
7965,2453,1126,1039,2491,62980,87091,113975,62980
7965,2458,1132,1060,2503,62980,87091,113975,62980
7965,2452,1108,1089,2505,62980,87091,113975,62980
7965,2455,1142,1123,2517,62980,87091,113975,62980
7873,2453,1132,1121,2541,62980,87091,113975,62980
7965,2449,1153,1123,2561,62980,87091,113975,62980
8331,2457,1170,1140,2534,62980,87091,113975,62980
7965,2453,1171,1131,2548,62980,87091,113975,62980
7965,2453,1151,1154,2495,62980,87091,113975,62980
7965,2453,1158,1183,2502,62980,87091,113975,62980
7965,2454,1219,1183,2503,62980,87091,113975,62980
7965,2452,1197,1181,2519,62980,87091,113975,62980
7873,2445,1212,1158,2546,62980,87091,113975,62980
8331,2447,1150,1099,2525,62980,87091,113975,62980
7965,2459,1125,1106,2533,62980,87091,113975,62980
7965,2453,1125,1125,2493,62980,87091,113975,62980
7965,2459,1151,1183,2487,62980,87091,113975,62980
7965,2446,1153,1182,2506,62980,87091,113975,62980
7965,2455,1144,1143,2506,62980,87091,113975,62980
7965,2449,1106,1147,2519,62980,87091,113975,62980
7873,2456,1114,1137,2543,62980,87091,113975,62980
8331,2443,1121,1133,2529,62980,87091,113975,62980
7965,2458,1157,1201,2532,62980,87091,113975,62980
7965,2453,1150,1198,2496,62980,87091,113975,62980
7965,2460,1145,1198,2499,62980,87091,113975,62980
7965,2450,1095,1194,2500,62980,87091,113975,62980
7965,2452,1113,1177,2508,62980,87091,113975,62980
7965,2451,1106,1156,2515,62980,87091,113975,62980
7873,2459,1165,1228,2546,62980,87091,113975,62980
8331,2451,1157,1224,2523,62980,87091,113975,62980
7965,2453,1150,1225,2492,62980,87091,113975,62980
7965,2453,1129,1204,2490,62980,87091,113975,62980
7965,2458,1134,1160,2498,62980,87091,113975,62980
7965,2457,1115,1149,2514,62980,87091,113975,62980
7965,2454,1113,1143,2523,62980,87091,113975,62980
7965,2453,1110,1121,2527,62980,87091,113975,62980
8239,2447,1123,1181,2536,62980,87091,113975,62980
7965,2453,1109,1139,2537,62980,87091,113975,62980
7965,2453,1112,1116,2503,62980,87091,113975,62980
7965,2463,1132,1076,2497,62980,87091,113975,62980
7965,2451,1167,1095,2510,62980,87091,113975,62980
7965,2450,1135,1154,2508,62980,87091,113975,62980
7965,2446,1133,1153,2528,62980,87091,113975,62980
7873,2451,1127,1174,2554,62980,87091,113975,62980
8331,2444,1123,1125,2532,62980,87091,113975,62980
7965,2465,1127,1064,2540,62980,87091,113975,62980
7965,2451,1145,1066,2499,62980,87091,113975,62980
7965,2460,1147,1074,2505,62980,87091,113975,62980
7965,2447,1111,1121,2508,62980,87091,113975,62980
7965,2453,1142,1113,2514,62980,87091,113975,62980
7965,2446,1164,1157,2519,62980,87091,113975,62980
8239,2451,1153,1114,2526,62980,87091,113975,62980
7965,2454,1182,1114,2528,62980,87091,113975,62980
7965,2459,1173,1118,2491,62980,87091,113975,62980
7965,2460,1139,1103,2492,62980,87091,113975,62980
7965,2457,1140,1114,2501,62980,87091,113975,62980
7965,2454,1156,1129,2510,62980,87091,113975,62980
7965,2448,1187,1111,2512,62980,87091,113975,62980
7965,2450,1155,1104,2521,62980,87091,113975,62980
8239,2450,1142,1068,2529,62980,87091,113975,62980
7965,2445,1118,1062,2530,62980,87091,113975,62980
7965,2453,1122,1074,2491,62980,87091,113975,62980
7965,2460,1129,1144,2495,62980,87091,113975,62980
7965,2450,1182,1154,2508,62980,87091,113975,62980
7965,2449,1150,1091,2501,62980,87091,113975,62980
7965,2448,1111,1110,2531,62980,87091,113975,62980
7965,2455,1100,1102,2530,62980,87091,113975,62980
8239,2440,1116,1071,2534,62980,87091,113975,62980
7965,2461,1138,1155,2490,62980,87091,113975,62980
7965,2455,1140,1136,2498,62980,87091,113975,62980
7965,2459,1125,1129,2500,62980,87091,113975,62980
7965,2451,1085,1072,2505,62980,87091,113975,62980
7965,2450,1097,1058,2520,62980,87091,113975,62980
7965,2445,1067,1025,2523,62980,87091,113975,62980
7965,2453,1065,1008,2536,62980,87091,113975,62980
8239,2447,1075,1016,2540,62980,87091,113975,62980
7965,2456,1059,1012,2493,62980,87091,113975,62980
7965,2460,1018,987,2493,62980,87091,113975,62980
7965,2458,1024,956,2507,62980,87091,113975,62980
7965,2454,997,938,2509,62980,87091,113975,62980
7965,2455,993,932,2524,62980,87091,113975,62980
7965,2446,981,906,2526,62980,87091,113975,62980
7965,2451,991,903,2534,62980,87091,113975,62980
8239,2450,969,933,2538,62980,87091,113975,62980
7965,2451,978,935,2500,62980,87091,113975,62980
7965,2457,983,856,2494,62980,87091,113975,62980
7965,2449,974,869,2509,62980,87091,113975,62980
7965,2451,981,933,2506,62980,87091,113975,62980
7965,2454,999,953,2523,62980,87091,113975,62980
7965,2451,1026,952,2520,62980,87091,113975,62980
8239,2453,1025,1011,2528,62980,87091,113975,62980
7965,2460,1038,950,2485,62980,87091,113975,62980
7965,2450,1054,953,2496,62980,87091,113975,62980
7965,2455,1073,958,2497,62980,87091,113975,62980
7965,2453,1032,1012,2507,62980,87091,113975,62980
7965,2454,1053,1013,2516,62980,87091,113975,62980
7965,2449,1078,1019,2518,62980,87091,113975,62980
7965,2453,1139,1044,2539,62980,87091,113975,62980
8239,2452,1078,991,2546,62980,87091,113975,62980
7965,2467,1104,1016,2491,62980,87091,113975,62980
7965,2450,1081,1008,2502,62980,87091,113975,62980
7965,2456,1079,1034,2503,62980,87091,113975,62980
7965,2448,1082,1031,2519,62980,87091,113975,62980
7965,2454,1139,1044,2519,62980,87091,113975,62980
7965,2452,1095,1016,2530,62980,87091,113975,62980
7965,2456,1038,995,2544,62980,87091,113975,62980
8239,2446,1044,935,2540,62980,87091,113975,62980
7965,2462,1027,934,2497,62980,87091,113975,62980
7965,2453,1027,953,2500,62980,87091,113975,62980
7965,2454,1082,970,2510,62980,87091,113975,62980
7965,2449,1069,954,2508,62980,87091,113975,62980
7965,2452,1012,968,2535,62980,87091,113975,62980
7965,2455,1014,969,2534,62980,87091,113975,62980
7965,2451,1012,977,2542,62980,87091,113975,62980
8239,2456,1030,969,2489,62980,87091,113975,62980
7965,2453,1051,1008,2504,62980,87091,113975,62980
7965,2458,1048,1006,2504,62980,87091,113975,62980
7965,2449,994,962,2514,62980,87091,113975,62980
7965,2453,1006,953,2513,62980,87091,113975,62980
7965,2450,992,981,2528,62980,87091,113975,62980
7965,2452,1008,964,2532,62980,87091,113975,62980
7965,2445,998,948,2545,62980,87091,113975,62980
8239,2448,1030,993,2491,62980,87091,113975,62980
7965,2453,999,994,2495,62980,87091,113975,62980
7965,2456,995,992,2506,62980,87091,113975,62980
7965,2451,1009,1005,2510,62980,87091,113975,62980
7965,2455,1022,1000,2517,62980,87091,113975,62980
7965,2447,1032,1022,2532,62980,87091,113975,62980
7965,2456,1046,1021,2531,62980,87091,113975,62980
7965,2450,1045,1017,2561,62980,87091,113975,62980
8239,2454,1057,1058,2500,62980,87091,113975,62980
7965,2455,1051,991,2507,62980,87091,113975,62980
7965,2457,1040,1018,2517,62980,87091,113975,62980
7965,2449,1030,979,2516,62980,87091,113975,62980
7965,2456,1030,964,2532,62980,87091,113975,62980
7965,2448,1037,916,2535,62980,87091,113975,62980
7965,2453,1035,871,2547,62980,87091,113975,62980
8239,2467,1005,855,2488,62980,87091,113975,62980
7965,2453,1013,810,2507,62980,87091,113975,62980
7965,2459,978,778,2510,62980,87091,113975,62980
7965,2445,967,832,2515,62980,87091,113975,62980
7965,2456,966,818,2517,62980,87091,113975,62980
7965,2448,972,799,2530,62980,87091,113975,62980
7965,2450,994,830,2538,62980,87091,113975,62980
7965,2441,976,830,2554,62980,87091,113975,62980
8239,2453,989,768,2496,62980,87091,113975,62980
7965,2453,962,769,2505,62980,87091,113975,62980
7965,2456,936,816,2509,62980,87091,113975,62980
7965,2450,939,784,2520,62980,87091,113975,62980
7965,2449,975,829,2524,62980,87091,113975,62980
7965,2450,1012,842,2530,62980,87091,113975,62980
7965,2451,987,852,2540,62980,87091,113975,62980
7965,2453,948,820,2551,62980,87091,113975,62980
8239,2451,962,835,2493,62980,87091,113975,62980
7965,2453,972,853,2499,62980,87091,113975,62980
7965,2452,1016,886,2511,62980,87091,113975,62980
7965,2450,1033,883,2510,62980,87091,113975,62980
7965,2452,1011,905,2520,62980,87091,113975,62980
7965,2449,972,888,2526,62980,87091,113975,62980
7965,2453,983,901,2548,62980,87091,113975,62980
8331,2453,1026,950,2515,62980,87091,113975,62980
7965,2461,1020,957,2546,62980,87091,113975,62980
7965,2456,999,963,2492,62980,87091,113975,62980
7965,2460,1012,961,2508,62980,87091,113975,62980
7965,2457,1019,921,2498,62980,87091,113975,62980
7965,2452,1000,921,2520,62980,87091,113975,62980
7965,2458,1001,909,2516,62980,87091,113975,62980
7965,2448,1001,888,2536,62980,87091,113975,62980
7965,2450,1006,863,2535,62980,87091,113975,62980
7965,2442,990,823,2555,62980,87091,113975,62980
7965,2456,1004,800,2557,62980,87091,113975,62980
8239,2452,973,798,2497,62980,87091,113975,62980
7965,2455,941,786,2505,62980,87091,113975,62980
7965,2445,937,834,2514,62980,87091,113975,62980
7965,2450,941,830,2522,62980,87091,113975,62980
7965,2445,948,778,2529,62980,87091,113975,62980
7965,2456,1023,815,2543,62980,87091,113975,62980
7965,2454,964,799,2547,62980,87091,113975,62980
8331,2453,953,765,2530,62980,87091,113975,62980
7965,2454,935,762,2538,62980,87091,113975,62980
7965,2462,949,817,2500,62980,87091,113975,62980
7965,2459,965,849,2494,62980,87091,113975,62980
7965,2453,964,853,2504,62980,87091,113975,62980
7965,2449,914,809,2510,62980,87091,113975,62980
7965,2454,925,815,2523,62980,87091,113975,62980
7965,2449,920,817,2525,62980,87091,113975,62980
7965,2448,935,800,2535,62980,87091,113975,62980
7965,2442,949,798,2540,62980,87091,113975,62980
8331,2443,943,849,2523,62980,87091,113975,62980
7965,2463,955,809,2530,62980,87091,113975,62980
7965,2458,966,745,2494,62980,87091,113975,62980
7965,2448,996,736,2497,62980,87091,113975,62980
7965,2454,1001,758,2507,62980,87091,113975,62980
7965,2456,973,800,2510,62980,87091,113975,62980
7965,2447,984,795,2531,62980,87091,113975,62980
7965,2454,1008,802,2529,62980,87091,113975,62980
7965,2449,1055,829,2542,62980,87091,113975,62980
7965,2456,1037,834,2549,62980,87091,113975,62980
8331,2445,968,774,2534,62980,87091,113975,62980
7965,2459,981,791,2542,62980,87091,113975,62980
7965,2455,981,863,2496,62980,87091,113975,62980
7965,2462,1000,835,2500,62980,87091,113975,62980
7965,2450,953,804,2505,62980,87091,113975,62980
7965,2459,929,754,2511,62980,87091,113975,62980
7965,2450,900,727,2523,62980,87091,113975,62980
7965,2449,885,690,2531,62980,87091,113975,62980
7965,2454,854,641,2536,62980,87091,113975,62980
7965,2453,849,609,2552,62980,87091,113975,62980
7965,2447,818,622,2554,62980,87091,113975,62980
8331,2445,822,571,2533,62980,87091,113975,62980
7965,2457,825,501,2539,62980,87091,113975,62980
7965,2453,843,513,2503,62980,87091,113975,62980
7965,2466,822,502,2501,62980,87091,113975,62980
7965,2453,803,548,2514,62980,87091,113975,62980
7965,2457,809,513,2515,62980,87091,113975,62980
7965,2450,870,538,2527,62980,87091,113975,62980
7965,2450,850,523,2526,62980,87091,113975,62980
7965,2450,812,525,2546,62980,87091,113975,62980
7965,2453,779,507,2548,62980,87091,113975,62980
8331,2438,791,564,2533,62980,87091,113975,62980
7965,2459,831,608,2531,62980,87091,113975,62980
7965,2445,824,621,2493,62980,87091,113975,62980
7965,2470,805,630,2501,62980,87091,113975,62980
7965,2449,805,590,2509,62980,87091,113975,62980
7965,2460,832,633,2511,62980,87091,113975,62980
7965,2448,835,608,2532,62980,87091,113975,62980
7965,2453,856,631,2539,62980,87091,113975,62980
7965,2456,862,622,2549,62980,87091,113975,62980
7965,2458,875,633,2557,62980,87091,113975,62980
8331,2438,891,595,2535,62980,87091,113975,62980
7965,2460,931,611,2545,62980,87091,113975,62980
7965,2456,926,609,2503,62980,87091,113975,62980
7965,2466,918,633,2505,62980,87091,113975,62980
7965,2456,897,620,2509,62980,87091,113975,62980
7965,2448,922,642,2522,62980,87091,113975,62980
7965,2447,959,654,2521,62980,87091,113975,62980
7965,2451,932,649,2539,62980,87091,113975,62980
7965,2457,865,617,2543,62980,87091,113975,62980
7965,2445,854,592,2559,62980,87091,113975,62980
8331,2453,853,632,2527,62980,87091,113975,62980
7965,2445,860,610,2545,62980,87091,113975,62980
7965,2459,837,589,2490,62980,87091,113975,62980
7965,2453,803,564,2510,62980,87091,113975,62980
7965,2457,787,524,2506,62980,87091,113975,62980
7965,2446,771,516,2512,62980,87091,113975,62980
7965,2455,779,493,2522,62980,87091,113975,62980
7965,2449,769,484,2528,62980,87091,113975,62980
7965,2454,770,464,2541,62980,87091,113975,62980
7965,2445,753,444,2551,62980,87091,113975,62980
8331,2456,771,392,2523,62980,87091,113975,62980
7965,2450,783,386,2533,62980,87091,113975,62980
7965,2458,768,406,2487,62980,87091,113975,62980
7965,2453,739,406,2497,62980,87091,113975,62980
7965,2456,759,440,2500,62980,87091,113975,62980
7965,2449,845,468,2507,62980,87091,113975,62980
7995,2452,840,491,2509,62980,86950,113928,62980
7965,2446,535,501,2517,62980,86950,113928,62980
7965,2451,554,514,2531,62980,86950,113928,62980
7965,2448,551,509,2545,62980,86950,113928,62980
7965,2455,603,530,2563,62980,86950,113928,62980
8331,2458,596,595,2530,62980,86950,113928,62980
7965,2453,587,590,2547,62980,86950,113928,62980
7965,2460,597,551,2497,62980,86950,113928,62980
7965,2453,610,508,2507,62980,86950,113928,62980
7965,2457,648,501,2510,62980,86950,113928,62980
7965,2450,605,557,2518,62980,86950,113928,62980
7965,2454,622,572,2518,62980,86950,113928,62980
7965,2448,633,564,2534,62980,86950,113928,62980
7965,2455,649,547,2541,62980,86950,113928,62980
7965,2444,694,556,2557,62980,86950,113928,62980
8331,2458,629,483,2525,62980,86950,113928,62980
7965,2452,583,456,2541,62980,86950,113928,62980
7965,2452,589,483,2497,62980,86950,113928,62980
7965,2455,599,522,2503,62980,86950,113928,62980
7965,2458,594,515,2506,62980,86950,113928,62980
7965,2450,577,441,2510,62980,86950,113928,62980
7965,2453,528,438,2520,62980,86950,113928,62980
7965,2446,508,418,2531,62980,86950,113928,62980
7965,2450,515,419,2543,62980,86950,113928,62980
7965,2452,506,401,2546,62980,86950,113928,62980
8331,2449,501,428,2532,62980,86950,113928,62980
7965,2459,492,387,2528,62980,86950,113928,62980
7965,2455,495,333,2499,62980,86950,113928,62980
7965,2457,494,268,2496,62980,86950,113928,62980
7965,2459,517,290,2508,62980,86950,113928,62980
7965,2452,470,327,2505,62980,86950,113928,62980
7965,2450,479,340,2518,62980,86950,113928,62980
7965,2455,501,327,2517,62980,86950,113928,62980
7965,2445,574,377,2532,62980,86950,113928,62980
7965,2453,565,372,2550,62980,86950,113928,62980
7965,2452,518,333,2569,62980,86950,113928,62980
8331,2460,508,355,2540,62980,86950,113928,62980
7965,2460,529,410,2556,62980,86950,113928,62980
7965,2454,561,463,2498,62980,86950,113928,62980
7965,2453,550,467,2511,62980,86950,113928,62980
7965,2457,518,425,2509,62980,86950,113928,62980
7965,2452,520,435,2526,62980,86950,113928,62980
7965,2457,546,453,2531,62980,86950,113928,62980
7965,2451,537,454,2541,62980,86950,113928,62980
7965,2455,553,436,2548,62980,86950,113928,62980
7965,2445,534,460,2557,62980,86950,113928,62980
8331,2452,530,389,2535,62980,86950,113928,62980
7965,2456,517,289,2543,62980,86950,113928,62980
7965,2453,537,262,2500,62980,86950,113928,62980
7965,2464,503,225,2506,62980,86950,113928,62980
7965,2454,464,245,2514,62980,86950,113928,62980
7965,2449,458,217,2515,62980,86950,113928,62980
7965,2447,483,217,2531,62980,86950,113928,62980
7965,2450,508,214,2527,62980,86950,113928,62980
7965,2449,478,212,2547,62980,86950,113928,62980
7965,2454,417,217,2550,62980,86950,113928,62980
8331,2445,429,214,2531,62980,86950,113928,62980
7965,2454,457,256,2534,62980,86950,113928,62980
7965,2458,437,239,2499,62980,86950,113928,62980
7965,2460,409,221,2498,62980,86950,113928,62980
7965,2451,375,205,2511,62980,86950,113928,62980
7965,2458,365,171,2509,62980,86950,113928,62980
7965,2453,372,169,2524,62980,86950,113928,62980
7965,2456,371,148,2527,62980,86950,113928,62980
7965,2451,386,139,2543,62980,86950,113928,62980
7965,2453,382,138,2541,62980,86950,113928,62980
8331,2447,379,144,2542,62980,86950,113928,62980
7965,2462,403,97,2547,62980,86950,113928,62980
7812,2452,375,149,2531,62980,86950,113928,62980
7965,2452,381,146,2542,62980,86950,113928,62980
7965,2449,383,126,2549,62980,86950,113928,62980
7965,2453,388,136,2560,62980,86950,113928,62980
8331,2450,393,175,2541,62980,86950,113928,62980
7965,2464,399,140,2548,62980,86950,113928,62980
7965,2460,417,92,2496,62980,86950,113928,62980
7812,2455,399,184,2541,62980,86950,113928,62980
7965,2452,393,172,2552,62980,86950,113928,62980
7965,2450,436,205,2560,62980,86950,113928,62980
8331,2454,401,251,2532,62980,86950,113928,62980
7965,2456,413,252,2548,62980,86950,113928,62980
7965,2457,431,180,2499,62980,86950,113928,62980
7965,2460,443,181,2506,62980,86950,113928,62980
7965,2456,413,181,2507,62980,86950,113928,62980
7965,2449,413,201,2519,62980,86950,113928,62980
7965,2455,408,158,2524,62980,86950,113928,62980
7965,2454,412,128,2531,62980,86950,113928,62980
7965,2457,461,141,2543,62980,86950,113928,62980
7965,2449,402,142,2556,62980,86950,113928,62980
8331,2451,384,102,2529,62980,86950,113928,62980
7965,2452,371,130,2540,62980,86950,113928,62980
7965,2457,394,181,2496,62980,86950,113928,62980
7965,2460,406,232,2503,62980,86950,113928,62980
7965,2461,420,237,2508,62980,86950,113928,62980
7965,2450,366,193,2514,62980,86950,113928,62980
7965,2453,370,198,2518,62980,86950,113928,62980
7965,2451,367,173,2526,62980,86950,113928,62980
7965,2457,365,171,2535,62980,86950,113928,62980
7965,2450,373,151,2545,62980,86950,113928,62980
8331,2454,373,202,2541,62980,86950,113928,62980
7965,2452,368,138,2547,62980,86950,113928,62980
7965,2458,392,83,2503,62980,86950,113928,62980
7812,2453,377,138,2534,62980,86950,113928,62980
7965,2454,385,145,2553,62980,86950,113928,62980
7965,2457,425,132,2561,62980,86950,113928,62980
8331,2456,421,206,2539,62980,86950,113928,62980
7965,2462,407,195,2546,62980,86950,113928,62980
7965,2460,429,181,2504,62980,86950,113928,62980
7965,2460,441,140,2498,62980,86950,113928,62980
7965,2455,435,160,2519,62980,86950,113928,62980
7965,2456,442,211,2510,62980,86950,113928,62980
7965,2449,457,232,2525,62980,86950,113928,62980
7965,2452,471,229,2532,62980,86950,113928,62980
7965,2452,491,255,2545,62980,86950,113928,62980
7965,2450,488,264,2548,62980,86950,113928,62980
8331,2445,472,232,2539,62980,86950,113928,62980
7965,2453,455,218,2534,62980,86950,113928,62980
7965,2453,459,215,2498,62980,86950,113928,62980
7965,2456,475,252,2499,62980,86950,113928,62980
7965,2450,439,218,2505,62980,86950,113928,62980
7965,2452,422,130,2509,62980,86950,113928,62980
7965,2446,370,111,2520,62980,86950,113928,62980
7965,2453,368,108,2528,62980,86950,113928,62980
7965,2448,351,83,2536,62980,86950,113928,62980
8178,2464,355,67,2501,62980,86950,113928,62980
7812,2451,341,46,2536,62980,86950,113928,62980
8178,2464,347,110,2501,62980,86950,113928,62980
7965,2455,327,74,2503,62980,86950,113928,62980
7812,2449,364,22,2550,62980,86950,113928,62980
8178,2453,333,55,2510,62980,86950,113928,62980
8178,2453,372,104,2528,62980,86950,113928,62980
7965,2459,361,94,2544,62980,86950,113928,62980
7812,2453,376,74,2533,62980,86950,113928,62980
8178,2453,345,77,2544,62980,86950,113928,62980
7812,2453,334,68,2535,62980,86950,113928,62980
8178,2456,369,13,2551,62980,86950,113928,62980
7812,2446,341,61,2539,62980,86950,113928,62980
8178,2458,382,64,2499,62980,86950,113928,62980
7812,2451,382,64,2533,62980,86950,113928,62980
8178,2457,395,117,2497,62980,86950,113928,62980
7965,2453,404,110,2509,62980,86950,113928,62980
7965,2453,438,72,2504,62980,86950,113928,62980
7812,2446,438,150,2558,62980,86950,113928,62980
8331,2457,460,183,2531,62980,86950,113928,62980
7965,2459,478,239,2543,62980,86950,113928,62980
7965,2460,481,239,2493,62980,86950,113928,62980
7965,2456,450,222,2506,62980,86950,113928,62980
7965,2458,444,217,2506,62980,86950,113928,62980
7965,2450,450,203,2517,62980,86950,113928,62980
7965,2455,450,185,2526,62980,86950,113928,62980
7965,2453,434,165,2536,62980,86950,113928,62980
7965,2458,451,143,2539,62980,86950,113928,62980
7965,2447,433,121,2544,62980,86950,113928,62980
8331,2454,421,48,2534,62980,86950,113928,62980
7812,2450,377,69,2510,62980,86950,113928,62980
8178,2452,371,21,2534,62980,86950,113928,62980
7812,2453,355,30,2514,62980,86950,113928,62980
8178,2440,386,58,2536,62980,86950,113928,62980
7812,2453,363,3,2511,62980,86950,113928,62980
8178,2453,337,50,2532,62980,86950,113928,62980
7812,2450,360,29,2512,62980,86950,113928,62980
8178,2451,364,0,2530,62980,86950,113928,62980
7812,2451,331,27,2518,62980,86950,113928,62980
8178,2438,341,7,2556,62980,86950,113928,62980
7934,2455,356,60,2507,62980,86950,113928,62980
7812,2443,345,22,2555,62980,86950,113928,62980
8178,2454,336,58,2505,62980,86950,113928,62980
7812,2450,391,26,2560,62980,86950,113928,62980
8178,2449,359,0,2507,62980,86950,113928,62980
7812,2447,351,29,2559,62980,86950,113928,62980
8178,2461,355,1,2514,62980,86950,113928,62980
7812,2452,336,29,2561,62980,86950,113928,62980
8178,2455,419,31,2519,62980,86950,113928,62980
7812,2448,379,2,2565,62980,86950,113928,62980
8178,2457,370,51,2517,62980,86950,113928,62980
8178,2454,384,13,2532,62980,86950,113928,62980
7812,2456,399,72,2517,62980,86950,113928,62980
8178,2454,431,125,2535,62980,86950,113928,62980
7965,2460,436,137,2545,62980,86950,113928,62980
7965,2457,419,111,2497,62980,86950,113928,62980
7965,2460,418,94,2508,62980,86950,113928,62980
7812,2448,413,107,2537,62980,86950,113928,62980
7965,2451,434,112,2558,62980,86950,113928,62980
8331,2451,457,166,2531,62980,86950,113928,62980
7965,2456,448,164,2541,62980,86950,113928,62980
7965,2456,434,120,2490,62980,86950,113928,62980
7965,2457,419,125,2506,62980,86950,113928,62980
7965,2454,412,68,2505,62980,86950,113928,62980
7812,2450,409,24,2557,62980,86950,113928,62980
8178,2457,392,30,2508,62980,86950,113928,62980
8178,2446,401,57,2523,62980,86950,113928,62980
7812,2452,399,28,2508,62980,86950,113928,62980
8178,2451,347,39,2529,62980,86950,113928,62980
7812,2452,334,27,2510,62980,86950,113928,62980
8178,2446,356,0,2526,62980,86950,113928,62980
7812,2449,318,27,2521,62980,86950,113928,62980
8178,2450,328,14,2540,62980,86950,113928,62980
7812,2454,319,24,2525,62980,86950,113928,62980
8178,2453,297,60,2546,62980,86950,113928,62980
7812,2453,365,29,2527,62980,86950,113928,62980
8178,2451,321,0,2549,62980,86950,113928,62980
7812,2449,299,25,2531,62980,86950,113928,62980
8178,2452,298,0,2547,62980,86950,113928,62980
7812,2453,299,26,2530,62980,86950,113928,62980
8178,2444,317,50,2492,62980,86950,113928,62980
7812,2454,322,26,2536,62980,86950,113928,62980
8178,2453,284,47,2499,62980,86950,113928,62980
7812,2448,269,26,2540,62980,86950,113928,62980
8178,2453,320,0,2496,62980,86950,113928,62980
7812,2448,299,26,2537,62980,86950,113928,62980
8178,2453,341,59,2496,62980,86950,113928,62980
7812,2446,348,20,2540,62980,86950,113928,62980
8178,2458,358,52,2499,62980,86950,113928,62980
7812,2451,432,27,2543,62980,86950,113928,62980
8178,2452,417,0,2499,62980,86950,113928,62980
7812,2445,389,32,2544,62980,86950,113928,62980
8178,2455,413,12,2505,62980,86950,113928,62980
7812,2444,410,34,2552,62980,86950,113928,62980
8178,2456,478,98,2504,62980,86950,113928,62980
7812,2447,433,58,2551,62980,86950,113928,62980
8178,2450,418,55,2505,62980,86950,113928,62980
7812,2445,415,21,2555,62980,86950,113928,62980
8178,2454,407,29,2506,62980,86950,113928,62980
8178,2447,428,51,2522,62980,86950,113928,62980
7812,2453,435,29,2514,62980,86950,113928,62980
8178,2448,377,43,2523,62980,86950,113928,62980
7812,2449,359,29,2512,62980,86950,113928,62980
8178,2454,376,0,2542,62980,86950,113928,62980
7812,2454,337,27,2525,62980,86950,113928,62980
8178,2452,347,59,2540,62980,86950,113928,62980
7812,2452,328,20,2528,62980,86950,113928,62980
8178,2453,321,56,2541,62980,86950,113928,62980
7812,2449,377,29,2529,62980,86950,113928,62980
8178,2453,339,0,2540,62980,86950,113928,62980
7934,2451,356,0,2504,62980,86950,113928,62980
7812,2455,315,29,2544,62980,86950,113928,62980
8178,2457,332,0,2507,62980,86950,113928,62980
7812,2454,326,25,2551,62980,86950,113928,62980
8178,2448,346,52,2504,62980,86950,113928,62980
7812,2445,401,27,2545,62980,86950,113928,62980
8178,2447,328,0,2505,62980,86950,113928,62980
7812,2450,337,20,2544,62980,86950,113928,62980
8178,2442,333,0,2512,62980,86950,113928,62980
7812,2450,360,58,2556,62980,86950,113928,62980
8178,2448,406,26,2512,62980,86950,113928,62980
8178,2453,352,0,2526,62980,86950,113928,62980
7812,2444,322,26,2514,62980,86950,113928,62980
8178,2451,353,0,2529,62980,86950,113928,62980
7812,2443,326,25,2513,62980,86950,113928,62980
8178,2453,365,60,2528,62980,86950,113928,62980
7812,2448,326,0,2508,62980,86950,113928,62980
8178,2451,312,57,2532,62980,86950,113928,62980
7812,2449,319,29,2514,62980,86950,113928,62980
7934,2438,269,27,2527,62980,86950,113928,62980
8178,2449,285,0,2490,62980,86950,113928,62980
7812,2450,227,29,2535,62980,86950,113928,62980
8300,2447,230,59,2520,62980,86950,113928,62980
7812,2448,227,27,2512,62980,86950,113928,62980
8178,2447,166,42,2519,62980,86950,113928,62980
7812,2446,136,25,2526,62980,86950,113928,62980
8178,2456,168,0,2532,62980,86950,113928,62980
7812,2446,122,28,2530,62980,86950,113928,62980
8178,2451,130,46,2533,62980,86950,113928,62980
7812,2447,97,23,2527,62980,86950,113928,62980
8178,2457,85,56,2542,62980,86950,113928,62980
7812,2445,132,28,2532,62980,86950,113928,62980
8178,2461,88,0,2539,62980,86950,113928,62980
7812,2450,52,49,2528,62980,86950,113928,62980
8178,2452,73,0,2492,62980,86950,113928,62980
7812,2445,62,27,2533,62980,86950,113928,62980
8178,2448,96,54,2489,62980,86950,113928,62980
7812,2449,101,27,2529,62980,86950,113928,62980
8178,2451,83,41,2494,62980,86950,113928,62980
7812,2449,67,25,2533,62980,86950,113928,62980
8178,2462,118,0,2501,62980,86950,113928,62980
7812,2450,84,29,2529,62980,86950,113928,62980
8178,2450,110,59,2498,62980,86950,113928,62980
7812,2449,101,21,2535,62980,86950,113928,62980
8178,2451,99,52,2503,62980,86950,113928,62980
7934,2451,97,27,2510,62980,86950,113928,62980
8178,2450,143,0,2533,62980,86950,113928,62980
7812,2449,119,29,2508,62980,86950,113928,62980
8178,2454,169,56,2527,62980,86950,113928,62980
7812,2448,163,0,2514,62980,86950,113928,62980
8178,2455,152,57,2535,62980,86950,113928,62980
7812,2451,183,30,2512,62980,86950,113928,62980
8178,2447,186,0,2534,62980,86950,113928,62980
7812,2456,137,30,2519,62980,86950,113928,62980
8178,2445,138,0,2533,62980,86950,113928,62980
7934,2455,137,0,2493,62980,86950,113928,62980
7812,2446,114,28,2543,62980,86950,113928,62980
8178,2459,100,58,2503,62980,86950,113928,62980
7812,2445,159,32,2557,62980,86950,113928,62980
8178,2453,101,0,2507,62980,86950,113928,62980
7812,2450,63,25,2556,62980,86950,113928,62980
8178,2458,71,0,2510,62980,86950,113928,62980
7812,2451,41,25,2556,62980,86950,113928,62980
8178,2456,105,27,2509,62980,86950,113928,62980
7812,2448,40,0,2564,62980,86950,113928,62980
8178,2454,23,24,2514,62980,86950,113928,62980
8178,2449,22,0,2534,62980,86950,113928,62980
7812,2452,27,28,2515,62980,86950,113928,62980
8178,2450,53,54,2532,62980,86950,113928,62980
7812,2450,54,0,2516,62980,86950,113928,62980
8178,2451,31,51,2532,62980,86950,113928,62980
7934,2449,38,43,2497,62980,86950,113928,62980
7812,2451,22,27,2528,62980,86950,113928,62980
8178,2457,68,0,2499,62980,86950,113928,62980
7934,2448,41,25,2504,62980,86950,113928,62980
7812,2454,78,58,2554,62980,86950,113928,62980
8178,2448,136,31,2511,62980,86950,113928,62980
8178,2445,78,0,2526,62980,86950,113928,62980
7812,2445,69,26,2512,62980,86950,113928,62980
8178,2449,102,0,2529,62980,86950,113928,62980
7812,2458,79,35,2510,62980,86950,113928,62980
8178,2451,111,60,2532,62980,86950,113928,62980
7812,2450,93,0,2503,62980,86950,113928,62980
8178,2441,73,58,2535,62980,86950,113928,62980
7934,2458,80,44,2492,62980,86950,113928,62980
7812,2451,68,29,2535,62980,86950,113928,62980
8178,2460,119,0,2503,62980,86950,113928,62980
7934,2450,81,29,2509,62980,86950,113928,62980
8178,2460,106,60,2522,62980,86950,113928,62980
7812,2448,104,29,2517,62980,86950,113928,62980
8178,2453,80,42,2541,62980,86950,113928,62980
7812,2450,50,27,2520,62980,86950,113928,62980
8178,2460,86,0,2540,62980,86950,113928,62980
7812,2449,32,32,2519,62980,86950,113928,62980
8178,2454,40,61,2537,62980,86950,113928,62980
7812,2449,23,22,2523,62980,86950,113928,62980
8178,2449,13,65,2548,62980,86950,113928,62980
7812,2455,74,32,2520,62980,86950,113928,62980
8178,2453,45,0,2547,62980,86950,113928,62980
7812,2448,7,50,2522,62980,86950,113928,62980
8178,2450,7,0,2497,62980,86950,113928,62980
7812,2448,4,32,2524,62980,86950,113928,62980
8178,2457,39,65,2500,62980,86950,113928,62980
7934,2451,38,66,2498,62980,86950,113928,62980
7812,2446,84,32,2553,62980,86950,113928,62980
8178,2451,0,0,2504,62980,86950,113928,62980
7934,2446,2,31,2525,62980,86950,113928,62980
8178,2453,12,3,2532,62980,86950,113928,62980
7812,2446,9,29,2522,62980,86950,113928,62980
7934,2453,8,26,2540,62980,86950,113928,62980
8178,2453,9,62,2502,62980,86950,113928,62980
7812,2453,71,32,2540,62980,86950,113928,62980
8178,2447,47,0,2501,62980,86950,113928,62980
7812,2453,0,52,2544,62980,86950,113928,62980
8178,2444,1,0,2506,62980,86950,113928,62980
7812,2451,5,33,2544,62980,86950,113928,62980
8178,2447,81,65,2503,62980,86950,113928,62980
7812,2460,47,36,2546,62980,86950,113928,62980
8178,2450,7,51,2506,62980,86950,113928,62980
7812,2450,8,0,2550,62980,86950,113928,62980
8178,2449,3,33,2500,62980,86950,113928,62980
8178,2453,40,66,2537,62980,86950,113928,62980
7812,2448,25,29,2517,62980,86950,113928,62980
8178,2455,7,43,2540,62980,86950,113928,62980
7812,2453,7,32,2516,62980,86950,113928,62980
8178,2451,39,0,2543,62980,86950,113928,62980
7812,2454,5,32,2520,62980,86950,113928,62980
8178,2455,17,64,2543,62980,86950,113928,62980
7812,2455,14,25,2520,62980,86950,113928,62980
8178,2454,8,59,2542,62980,86950,113928,62980
7812,2450,77,31,2527,62980,86950,113928,62980
8178,2450,47,0,2546,62980,86950,113928,62980
7934,2457,43,0,2500,62980,86950,113928,62980
7812,2454,15,31,2541,62980,86950,113928,62980
8178,2460,15,0,2503,62980,86950,113928,62980
7812,2450,13,29,2549,62980,86950,113928,62980
8178,2452,43,61,2500,62980,86950,113928,62980
7812,2449,47,29,2550,62980,86950,113928,62980
8178,2453,12,0,2505,62980,86950,113928,62980
7812,2450,22,25,2552,62980,86950,113928,62980
8178,2460,28,27,2509,62980,86950,113928,62980
7812,2450,48,63,2554,62980,86950,113928,62980
8331,2451,28,57,2531,62980,87514,114680,62980
7812,2454,830,194,2518,62980,87514,114680,62980
7965,2452,776,216,2534,62980,87514,114680,62980
7965,2450,783,222,2533,62980,87514,114680,62980
7965,2455,790,262,2546,62980,87514,114680,62980
7965,2445,822,277,2552,62980,87514,114680,62980
8331,2445,820,291,2533,62980,87514,114680,62980
7965,2457,787,268,2487,62980,87514,114680,62980
7965,2454,795,231,2503,62980,87514,114680,62980
7965,2459,795,144,2501,62980,87514,114680,62980
7965,2450,780,210,2510,62980,87514,114680,62980
7965,2455,774,193,2522,62980,87514,114680,62980
7965,2444,775,169,2539,62980,87514,114680,62980
7965,2457,769,150,2541,62980,87514,114680,62980
7965,2447,798,140,2559,62980,87514,114680,62980
7965,2453,785,107,2565,62980,87514,114680,62980
8331,2449,760,102,2543,62980,87514,114680,62980
7965,2462,741,106,2548,62980,87514,114680,62980
7965,2453,741,139,2502,62980,87514,114680,62980
7965,2460,779,201,2508,62980,87514,114680,62980
7965,2453,791,160,2512,62980,87514,114680,62980
7965,2453,762,155,2518,62980,87514,114680,62980
7965,2445,711,129,2532,62980,87514,114680,62980
7965,2453,718,137,2538,62980,87514,114680,62980
7965,2451,695,103,2546,62980,87514,114680,62980
7965,2453,726,177,2564,62980,87514,114680,62980
8331,2453,701,180,2535,62980,87514,114680,62980
7965,2455,714,163,2548,62980,87514,114680,62980
7965,2450,719,118,2493,62980,87514,114680,62980
7965,2457,732,73,2509,62980,87514,114680,62980
7812,2450,698,129,2544,62980,87514,114680,62980
7965,2451,754,203,2558,62980,87514,114680,62980
8331,2453,746,203,2533,62980,87514,114680,62980
7965,2453,719,180,2545,62980,87514,114680,62980
7965,2464,722,152,2493,62980,87514,114680,62980
7965,2455,736,117,2509,62980,87514,114680,62980
7965,2456,725,148,2504,62980,87514,114680,62980
7965,2452,738,163,2522,62980,87514,114680,62980
7965,2456,749,163,2520,62980,87514,114680,62980
7965,2446,755,161,2534,62980,87514,114680,62980
7965,2454,778,147,2536,62980,87514,114680,62980
7965,2442,779,170,2550,62980,87514,114680,62980
8331,2451,786,137,2524,62980,87514,114680,62980
7965,2451,769,152,2557,62980,87514,114680,62980
7965,2453,754,144,2501,62980,87514,114680,62980
7965,2454,757,157,2504,62980,87514,114680,62980
7965,2456,804,191,2508,62980,87514,114680,62980
7965,2449,766,121,2521,62980,87514,114680,62980
7965,2452,693,120,2536,62980,87514,114680,62980
7965,2441,695,100,2539,62980,87514,114680,62980
7965,2451,684,77,2544,62980,87514,114680,62980
8178,2451,678,29,2509,62980,87514,114680,62980
7812,2451,679,32,2554,62980,87514,114680,62980
8178,2455,697,63,2500,62980,87514,114680,62980
7812,2445,747,29,2561,62980,87514,114680,62980
8178,2450,662,38,2511,62980,87514,114680,62980
7812,2452,649,29,2554,62980,87514,114680,62980
8178,2453,644,0,2505,62980,87514,114680,62980
7812,2452,672,61,2568,62980,87514,114680,62980
8178,2454,723,32,2508,62980,87514,114680,62980
8178,2445,659,43,2531,62980,87514,114680,62980
7812,2446,650,35,2511,62980,87514,114680,62980
8178,2454,694,0,2535,62980,87514,114680,62980
7812,2451,658,36,2516,62980,87514,114680,62980
8178,2450,703,77,2536,62980,87514,114680,62980
7812,2452,684,30,2516,62980,87514,114680,62980
8178,2445,663,64,2537,62980,87514,114680,62980
7812,2457,726,48,2516,62980,87514,114680,62980
8178,2447,717,0,2537,62980,87514,114680,62980
7812,2453,687,62,2518,62980,87514,114680,62980
8178,2450,687,37,2538,62980,87514,114680,62980
7812,2451,691,41,2521,62980,87514,114680,62980
8178,2449,709,88,2539,62980,87514,114680,62980
7812,2454,770,55,2525,62980,87514,114680,62980
8178,2453,690,40,2491,62980,87514,114680,62980
7812,2455,667,29,2542,62980,87514,114680,62980
8178,2456,684,0,2503,62980,87514,114680,62980
7812,2456,659,30,2542,62980,87514,114680,62980
8178,2449,692,56,2496,62980,87514,114680,62980
7812,2447,653,17,2540,62980,87514,114680,62980
8178,2452,626,54,2498,62980,87514,114680,62980
7812,2451,670,29,2547,62980,87514,114680,62980
8178,2459,657,0,2505,62980,87514,114680,62980
7812,2453,608,32,2555,62980,87514,114680,62980
8178,2457,604,0,2498,62980,87514,114680,62980
7812,2451,601,29,2548,62980,87514,114680,62980
8178,2454,617,58,2505,62980,87514,114680,62980
7812,2451,656,27,2554,62980,87514,114680,62980
8178,2456,562,0,2504,62980,87514,114680,62980
7934,2451,551,27,2527,62980,87514,114680,62980
8178,2458,554,0,2540,62980,87514,114680,62980
7812,2451,536,25,2529,62980,87514,114680,62980
8178,2453,551,58,2538,62980,87514,114680,62980
7812,2448,600,27,2530,62980,87514,114680,62980
8178,2454,551,0,2490,62980,87514,114680,62980
7812,2442,526,29,2530,62980,87514,114680,62980
8178,2454,578,0,2492,62980,87514,114680,62980
7812,2452,566,29,2529,62980,87514,114680,62980
8178,2457,621,55,2493,62980,87514,114680,62980
7812,2450,617,0,2533,62980,87514,114680,62980
8178,2453,607,56,2498,62980,87514,114680,62980
7812,2447,625,29,2536,62980,87514,114680,62980
8178,2457,641,0,2498,62980,87514,114680,62980
7812,2449,597,31,2538,62980,87514,114680,62980
8178,2449,616,1,2501,62980,87514,114680,62980
7934,2446,641,6,2504,62980,87514,114680,62980
8178,2449,601,47,2530,62980,87514,114680,62980
7812,2450,573,29,2520,62980,87514,114680,62980
8178,2452,626,0,2541,62980,87514,114680,62980
7812,2454,585,32,2522,62980,87514,114680,62980
8178,2451,611,7,2546,62980,87514,114680,62980
7812,2453,599,23,2520,62980,87514,114680,62980
8178,2444,589,57,2547,62980,87514,114680,62980
7812,2454,646,26,2528,62980,87514,114680,62980
8178,2444,596,0,2552,62980,87514,114680,62980
7934,2457,612,0,2505,62980,87514,114680,62980
7812,2446,557,32,2553,62980,87514,114680,62980
8178,2453,571,0,2500,62980,87514,114680,62980
7934,2447,580,0,2519,62980,87514,114680,62980
8178,2454,551,56,2535,62980,87514,114680,62980
7812,2450,585,30,2523,62980,87514,114680,62980
7934,2451,556,29,2535,62980,87514,114680,62980
8178,2459,592,0,2500,62980,87514,114680,62980
7812,2449,569,30,2532,62980,87514,114680,62980
7934,2446,587,64,2556,62980,87514,114680,62980
8178,2450,648,30,2510,62980,87514,114680,62980
8178,2453,561,29,2531,62980,87514,114680,62980
7812,2452,547,27,2509,62980,87514,114680,62980
8178,2453,582,0,2533,62980,87514,114680,62980
7812,2453,562,32,2521,62980,87514,114680,62980
8178,2447,598,58,2529,62980,87514,114680,62980
7812,2453,580,19,2519,62980,87514,114680,62980
8178,2450,565,62,2527,62980,87514,114680,62980
7812,2444,628,32,2524,62980,87514,114680,62980
8178,2450,622,0,2532,62980,87514,114680,62980
7812,2446,571,35,2524,62980,87514,114680,62980
8178,2449,582,0,2534,62980,87514,114680,62980
7812,2447,573,29,2521,62980,87514,114680,62980
8178,2453,596,65,2487,62980,87514,114680,62980
7812,2451,651,34,2540,62980,87514,114680,62980
8178,2450,566,0,2498,62980,87514,114680,62980
7812,2445,546,31,2539,62980,87514,114680,62980
8178,2464,582,0,2498,62980,87514,114680,62980
7812,2451,550,31,2543,62980,87514,114680,62980
8178,2449,596,65,2498,62980,87514,114680,62980
7812,2449,562,18,2548,62980,87514,114680,62980
8178,2456,540,61,2506,62980,87514,114680,62980
7934,2450,504,28,2519,62980,87514,114680,62980
8178,2460,519,0,2532,62980,87514,114680,62980
7812,2449,485,34,2514,62980,87514,114680,62980
8178,2454,526,63,2535,62980,87514,114680,62980
7812,2448,497,0,2516,62980,87514,114680,62980
8178,2454,479,48,2538,62980,87514,114680,62980
7812,2451,513,31,2520,62980,87514,114680,62980
8178,2451,528,0,2541,62980,87514,114680,62980
7812,2451,481,31,2523,62980,87514,114680,62980
8178,2445,511,1,2540,62980,87514,114680,62980
7934,2456,518,69,2494,62980,87514,114680,62980
7812,2453,514,27,2542,62980,87514,114680,62980
8178,2453,496,62,2498,62980,87514,114680,62980
7812,2448,582,32,2549,62980,87514,114680,62980
8178,2454,536,0,2499,62980,87514,114680,62980
7812,2446,523,29,2546,62980,87514,114680,62980
8178,2453,536,0,2503,62980,87514,114680,62980
7812,2447,540,31,2549,62980,87514,114680,62980
8178,2454,609,60,2499,62980,87514,114680,62980
7812,2447,558,32,2551,62980,87514,114680,62980
8178,2452,532,24,2506,62980,87514,114680,62980
7812,2453,539,0,2552,62980,87514,114680,62980
8178,2451,540,36,2511,62980,87514,114680,62980
8178,2449,563,65,2529,62980,87514,114680,62980
7812,2455,573,32,2516,62980,87514,114680,62980
8178,2454,516,51,2539,62980,87514,114680,62980
7812,2457,515,31,2523,62980,87514,114680,62980
8178,2454,552,0,2543,62980,87514,114680,62980
7812,2453,522,31,2525,62980,87514,114680,62980
8178,2450,536,70,2543,62980,87514,114680,62980
7812,2455,519,25,2529,62980,87514,114680,62980
8178,2451,505,61,2546,62980,87514,114680,62980
7812,2451,564,30,2526,62980,87514,114680,62980
8178,2451,513,0,2541,62980,87514,114680,62980
7812,2448,475,29,2531,62980,87514,114680,62980
8178,2453,478,0,2491,62980,87514,114680,62980
7812,2449,482,31,2535,62980,87514,114680,62980
8178,2455,522,62,2496,62980,87514,114680,62980
7812,2450,534,35,2535,62980,87514,114680,62980
8178,2450,504,52,2492,62980,87514,114680,62980
7812,2449,495,30,2542,62980,87514,114680,62980
8178,2455,540,0,2503,62980,87514,114680,62980
7934,2447,506,31,2511,62980,87514,114680,62980
7812,2455,532,65,2552,62980,87514,114680,62980
8178,2445,586,32,2515,62980,87514,114680,62980
8178,2459,517,0,2519,62980,87514,114680,62980
7812,2441,498,31,2514,62980,87514,114680,62980
8178,2454,546,0,2531,62980,87514,114680,62980
7812,2451,513,34,2520,62980,87514,114680,62980
8178,2454,571,67,2531,62980,87514,114680,62980
7812,2454,541,0,2517,62980,87514,114680,62980
8178,2457,545,60,2534,62980,87514,114680,62980
7812,2447,604,34,2519,62980,87514,114680,62980
8178,2458,603,0,2532,62980,87514,114680,62980
7812,2448,556,35,2522,62980,87514,114680,62980
8178,2458,582,0,2539,62980,87514,114680,62980
7812,2454,572,32,2530,62980,87514,114680,62980
8178,2454,613,65,2500,62980,87514,114680,62980
7812,2453,662,32,2534,62980,87514,114680,62980
8178,2456,599,0,2502,62980,87514,114680,62980
7812,2450,579,26,2534,62980,87514,114680,62980
8178,2455,612,0,2499,62980,87514,114680,62980
7812,2450,580,32,2530,62980,87514,114680,62980
8178,2453,622,62,2507,62980,87514,114680,62980
7812,2449,581,0,2539,62980,87514,114680,62980
8178,2453,565,58,2508,62980,87514,114680,62980
7812,2457,600,29,2543,62980,87514,114680,62980
8178,2453,597,0,2507,62980,87514,114680,62980
7812,2450,536,36,2543,62980,87514,114680,62980
8178,2454,548,0,2505,62980,87514,114680,62980
7812,2452,539,32,2544,62980,87514,114680,62980
8178,2449,548,65,2508,62980,87514,114680,62980
7812,2457,561,35,2546,62980,87514,114680,62980
8178,2449,491,0,2510,62980,87514,114680,62980
7934,2453,499,34,2520,62980,87514,114680,62980
8178,2450,495,0,2538,62980,87514,114680,62980
7812,2455,491,31,2522,62980,87514,114680,62980
7934,2451,491,28,2539,62980,87514,114680,62980
8178,2453,478,64,2497,62980,87514,114680,62980
7812,2443,558,32,2536,62980,87514,114680,62980
8178,2444,509,0,2500,62980,87514,114680,62980
7812,2454,486,54,2545,62980,87514,114680,62980
8178,2453,509,0,2509,62980,87514,114680,62980
7812,2445,496,32,2544,62980,87514,114680,62980
8178,2450,588,66,2507,62980,87514,114680,62980
7812,2447,550,35,2547,62980,87514,114680,62980
8178,2451,535,31,2512,62980,87514,114680,62980
7812,2450,552,0,2547,62980,87514,114680,62980
8178,2447,566,35,2524,62980,87514,114680,62980
8178,2454,609,70,2533,62980,87514,114680,62980
7812,2452,631,34,2528,62980,87514,114680,62980
8178,2456,595,50,2535,62980,87514,114680,62980
7812,2447,578,31,2528,62980,87514,114680,62980
8178,2460,639,0,2542,62980,87514,114680,62980
7812,2446,594,33,2527,62980,87514,114680,62980
8178,2451,620,65,2541,62980,87514,114680,62980
7812,2445,614,28,2528,62980,87514,114680,62980
8178,2454,608,60,2547,62980,87514,114680,62980
7812,2453,673,33,2528,62980,87514,114680,62980
8178,2453,619,0,2547,62980,87514,114680,62980
7934,2453,640,0,2504,62980,87514,114680,62980
7812,2455,603,35,2544,62980,87514,114680,62980
8178,2451,603,0,2504,62980,87514,114680,62980
7934,2451,632,0,2516,62980,87514,114680,62980
8178,2445,613,61,2532,62980,87514,114680,62980
7812,2453,601,35,2516,62980,87514,114680,62980
8178,2447,642,0,2534,62980,87514,114680,62980
7812,2454,606,35,2519,62980,87514,114680,62980
8178,2453,616,0,2539,62980,87514,114680,62980
7812,2449,620,31,2529,62980,87514,114680,62980
8178,2447,627,63,2538,62980,87514,114680,62980
7812,2454,696,35,2528,62980,87514,114680,62980
8178,2452,632,0,2492,62980,87514,114680,62980
7843,2446,608,63,2525,62980,87514,114680,62980
8178,2454,625,0,2530,62980,87514,114680,62980
7812,2446,625,33,2533,62980,87514,114680,62980
8178,2457,672,64,2534,62980,87514,114680,62980
7812,2449,686,36,2528,62980,87514,114680,62980
7934,2457,744,35,2536,62980,87514,114680,62980
8178,2450,655,0,2505,62980,87514,114680,62980
7812,2453,641,37,2552,62980,87514,114680,62980
8300,2447,658,27,2548,62980,87514,114680,62980
7812,2457,665,41,2524,62980,87514,114680,62980
8178,2451,681,118,2547,62980,87514,114680,62980
7965,2458,669,94,2502,62980,87514,114680,62980
7812,2449,719,86,2533,62980,87514,114680,62980
8178,2460,724,28,2501,62980,87514,114680,62980
7812,2444,665,71,2538,62980,87514,114680,62980
8178,2456,689,72,2505,62980,87514,114680,62980
7812,2449,680,80,2545,62980,87514,114680,62980
7934,2456,688,114,2564,62980,87514,114680,62980
8331,2452,684,31,2536,62980,87514,114680,62980
7812,2456,675,97,2528,62980,87514,114680,62980
8178,2452,690,27,2540,62980,87514,114680,62980
7812,2449,660,75,2525,62980,87514,114680,62980
8178,2457,703,106,2539,62980,87514,114680,62980
7965,2459,701,93,2504,62980,87514,114680,62980
7812,2452,688,47,2532,62980,87514,114680,62980
8178,2449,659,56,2502,62980,87514,114680,62980
7812,2454,644,38,2533,62980,87514,114680,62980
8178,2449,693,0,2500,62980,87514,114680,62980
7812,2460,660,39,2536,62980,87514,114680,62980
8178,2450,682,95,2506,62980,87514,114680,62980
7812,2456,681,34,2540,62980,87514,114680,62980
8178,2453,663,75,2508,62980,87514,114680,62980
7812,2456,739,48,2535,62980,87514,114680,62980
8178,2449,723,0,2505,62980,87514,114680,62980
7812,2459,678,91,2540,62980,87514,114680,62980
8178,2453,681,39,2507,62980,87514,114680,62980
7812,2454,690,87,2544,62980,87514,114680,62980
8178,2446,767,158,2509,62980,87514,114680,62980
7965,2455,698,129,2511,62980,87514,114680,62980
7965,2453,695,132,2533,62980,87514,114680,62980
7965,2455,707,167,2544,62980,87514,114680,62980
7965,2452,707,135,2549,62980,87514,114680,62980
7965,2445,738,139,2566,62980,87514,114680,62980
8331,2442,705,182,2535,62980,87514,114680,62980
7965,2455,716,158,2552,62980,87514,114680,62980
7965,2452,715,78,2497,62980,87514,114680,62980
7812,2455,706,150,2541,62980,87514,114680,62980
7965,2449,698,169,2543,62980,87514,114680,62980
7965,2453,756,143,2562,62980,87514,114680,62980
8331,2445,736,186,2534,62980,87514,114680,62980
7965,2449,705,174,2544,62980,87514,114680,62980
7965,2456,713,127,2501,62980,87514,114680,62980
7965,2456,717,29,2506,62980,87514,114680,62980
7843,2451,689,94,2533,62980,87514,114680,62980
8178,2454,699,43,2501,62980,87514,114680,62980
7812,2452,691,59,2535,62980,87514,114680,62980
8178,2453,731,121,2506,62980,87514,114680,62980
7873,2458,776,77,2520,62980,87514,114680,62980
8178,2447,699,14,2550,62980,87514,114680,62980
7812,2455,690,86,2527,62980,87514,114680,62980
8178,2449,716,44,2494,62980,87514,114680,62980
7812,2455,689,98,2532,62980,87514,114680,62980
8178,2447,745,155,2499,62980,87514,114680,62980
7965,2460,741,150,2502,62980,87514,114680,62980
7873,2450,773,103,2529,62980,87514,114680,62980
7965,2456,754,96,2535,62980,87514,114680,62980
8178,2451,750,24,2497,62980,87514,114680,62980
7812,2451,718,95,2539,62980,87514,114680,62980
8178,2447,727,62,2502,62980,87514,114680,62980
7812,2452,724,88,2541,62980,87514,114680,62980
8178,2455,738,133,2501,62980,87514,114680,62980
7873,2454,801,121,2545,62980,87514,114680,62980
7965,2449,729,127,2547,62980,87514,114680,62980
7965,2449,735,138,2562,62980,87514,114680,62980
8331,2449,767,203,2538,62980,87514,114680,62980
7965,2458,797,212,2547,62980,87514,114680,62980
7965,2453,780,200,2496,62980,87514,114680,62980
7965,2456,760,185,2508,62980,87514,114680,62980
7965,2458,762,146,2511,62980,87514,114680,62980
7873,2451,741,148,2539,62980,87514,114680,62980
7965,2452,749,158,2543,62980,87514,114680,62980
7965,2449,792,136,2563,62980,87514,114680,62980
8331,2451,777,195,2536,62980,87514,114680,62980
7965,2452,757,188,2548,62980,87514,114680,62980
7965,2463,756,142,2493,62980,87514,114680,62980
7965,2453,758,70,2501,62980,87514,114680,62980
7812,2451,740,117,2545,62980,87514,114680,62980
7965,2447,751,128,2560,62980,87514,114680,62980
8331,2453,768,157,2534,62980,87514,114680,62980
7965,2450,746,120,2542,62980,87514,114680,62980
7965,2458,720,108,2498,62980,87514,114680,62980
7965,2457,714,70,2506,62980,87514,114680,62980
7812,2453,713,39,2542,62980,87514,114680,62980
8178,2453,745,0,2504,62980,87514,114680,62980
7812,2454,702,40,2550,62980,87514,114680,62980
8178,2452,712,21,2504,62980,87514,114680,62980
7812,2453,684,30,2551,62980,87514,114680,62980
8178,2450,659,62,2505,62980,87514,114680,62980
7812,2447,709,32,2552,62980,87514,114680,62980
8178,2450,653,35,2504,62980,87514,114680,62980
7812,2453,676,9,2553,62980,87514,114680,62980
8178,2451,673,28,2508,62980,87514,114680,62980
8178,2450,672,65,2529,62980,87514,114680,62980
7812,2450,740,33,2517,62980,87514,114680,62980
8178,2449,685,0,2545,62980,87514,114680,62980
7812,2454,647,34,2521,62980,87514,114680,62980
8178,2455,652,0,2545,62980,87514,114680,62980
7934,2453,653,0,2499,62980,87514,114680,62980
7812,2446,645,32,2550,62980,87514,114680,62980
8178,2453,681,70,2498,62980,87514,114680,62980
7934,2453,689,32,2517,62980,87514,114680,62980
7812,2455,690,0,2562,62980,87514,114680,62980
8178,2446,634,58,2519,62980,87514,114680,62980
8178,2450,667,56,2533,62980,87514,114680,62980
7812,2448,663,48,2518,62980,87514,114680,62980
7965,2455,677,54,2521,62980,87702,115385,62980
8178,2450,897,831,2549,62980,87702,115385,62980
7965,2458,907,804,2499,62980,87702,115385,62980
7965,2456,909,715,2503,62980,87702,115385,62980
7965,2450,878,692,2507,62980,87702,115385,62980
7965,2453,863,735,2515,62980,87702,115385,62980
7965,2455,864,743,2526,62980,87702,115385,62980
7965,2449,870,702,2529,62980,87702,115385,62980
7965,2449,900,710,2543,62980,87702,115385,62980
7965,2451,886,723,2544,62980,87702,115385,62980
8331,2452,889,698,2533,62980,87702,115385,62980
7965,2453,861,694,2534,62980,87702,115385,62980
7965,2455,877,752,2494,62980,87702,115385,62980
7965,2458,911,824,2492,62980,87702,115385,62980
7965,2452,950,839,2510,62980,87702,115385,62980
7965,2459,914,781,2507,62980,87702,115385,62980
7873,2451,946,789,2543,62980,87702,115385,62980
7965,2452,884,739,2550,62980,87702,115385,62980
8331,2450,886,761,2536,62980,87702,115385,62980
7965,2451,931,837,2534,62980,87702,115385,62980
7965,2456,921,838,2508,62980,87702,115385,62980
7965,2462,915,855,2504,62980,87702,115385,62980
7965,2449,873,829,2519,62980,87702,115385,62980
7965,2455,900,843,2524,62980,87702,115385,62980
7873,2450,900,836,2555,62980,87702,115385,62980
8331,2449,954,902,2536,62980,87702,115385,62980
7965,2453,947,906,2546,62980,87702,115385,62980
7965,2456,935,895,2494,62980,87702,115385,62980
7965,2459,902,889,2506,62980,87702,115385,62980
7965,2460,917,855,2507,62980,87702,115385,62980
7965,2450,893,833,2508,62980,87702,115385,62980
7965,2448,907,833,2527,62980,87702,115385,62980
7873,2449,930,804,2555,62980,87702,115385,62980
8331,2454,917,852,2541,62980,87702,115385,62980
7965,2457,889,829,2543,62980,87702,115385,62980
7965,2460,895,803,2503,62980,87702,115385,62980
7965,2460,898,730,2503,62980,87702,115385,62980
7965,2456,868,713,2514,62980,87702,115385,62980
7965,2452,869,776,2511,62980,87702,115385,62980
7965,2443,884,768,2528,62980,87702,115385,62980
7965,2450,889,747,2528,62980,87702,115385,62980
7965,2452,914,732,2545,62980,87702,115385,62980
7965,2454,907,751,2549,62980,87702,115385,62980
8331,2449,891,702,2536,62980,87702,115385,62980
7965,2466,873,727,2534,62980,87702,115385,62980
7965,2457,877,775,2499,62980,87702,115385,62980
7965,2462,924,849,2495,62980,87702,115385,62980
7965,2451,944,823,2507,62980,87702,115385,62980
7965,2447,906,785,2511,62980,87702,115385,62980
7965,2448,856,783,2525,62980,87702,115385,62980
7873,2449,879,742,2554,62980,87702,115385,62980
8331,2441,884,779,2528,62980,87702,115385,62980
7965,2460,928,856,2558,62980,87702,115385,62980
7965,2464,913,839,2505,62980,87702,115385,62980
7965,2458,907,853,2512,62980,87702,115385,62980
7965,2454,868,813,2518,62980,87702,115385,62980
7965,2454,887,838,2524,62980,87702,115385,62980
7965,2452,890,831,2531,62980,87702,115385,62980
8239,2452,960,897,2534,62980,87702,115385,62980
7965,2453,955,895,2544,62980,87702,115385,62980
7965,2456,950,888,2504,62980,87702,115385,62980
7965,2456,919,856,2500,62980,87702,115385,62980
7965,2453,933,818,2518,62980,87702,115385,62980
7965,2458,912,813,2507,62980,87702,115385,62980
7965,2447,906,816,2528,62980,87702,115385,62980
7965,2453,919,799,2531,62980,87702,115385,62980
7965,2446,907,788,2542,62980,87702,115385,62980
7965,2445,914,776,2542,62980,87702,115385,62980
8331,2452,914,716,2535,62980,87702,115385,62980
7965,2460,933,726,2536,62980,87702,115385,62980
7965,2452,923,726,2498,62980,87702,115385,62980
7965,2462,900,710,2501,62980,87702,115385,62980
7965,2452,890,729,2509,62980,87702,115385,62980
7965,2457,962,727,2511,62980,87702,115385,62980
7965,2446,934,713,2522,62980,87702,115385,62980
7965,2454,885,717,2527,62980,87702,115385,62980
8239,2453,881,647,2530,62980,87702,115385,62980
7965,2457,847,652,2536,62980,87702,115385,62980
7965,2453,862,700,2496,62980,87702,115385,62980
7965,2451,898,785,2498,62980,87702,115385,62980
7965,2451,929,781,2509,62980,87702,115385,62980
7965,2451,895,751,2509,62980,87702,115385,62980
7965,2445,851,740,2518,62980,87702,115385,62980
7965,2453,863,769,2532,62980,87702,115385,62980
8239,2446,877,733,2544,62980,87702,115385,62980
7965,2452,923,806,2559,62980,87702,115385,62980
7965,2458,906,801,2499,62980,87702,115385,62980
7965,2459,893,800,2512,62980,87702,115385,62980
7965,2457,856,741,2509,62980,87702,115385,62980
7965,2452,875,755,2523,62980,87702,115385,62980
7965,2454,865,740,2524,62980,87702,115385,62980
7965,2444,864,731,2543,62980,87702,115385,62980
8239,2459,910,793,2539,62980,87702,115385,62980
7965,2450,893,791,2500,62980,87702,115385,62980
7965,2460,872,779,2498,62980,87702,115385,62980
7965,2451,881,752,2512,62980,87702,115385,62980
7965,2459,876,751,2510,62980,87702,115385,62980
7965,2447,869,751,2527,62980,87702,115385,62980
7965,2453,882,743,2527,62980,87702,115385,62980
7965,2447,878,720,2539,62980,87702,115385,62980
7965,2453,900,688,2550,62980,87702,115385,62980
8331,2453,875,627,2535,62980,87702,115385,62980
7965,2453,895,618,2536,62980,87702,115385,62980
7965,2452,864,609,2493,62980,87702,115385,62980
7965,2458,834,617,2501,62980,87702,115385,62980
7965,2451,836,621,2501,62980,87702,115385,62980
7965,2452,900,634,2510,62980,87702,115385,62980
7965,2450,877,625,2518,62980,87702,115385,62980
7965,2451,842,622,2526,62980,87702,115385,62980
7965,2449,795,616,2527,62980,87702,115385,62980
8239,2450,801,567,2541,62980,87702,115385,62980
7965,2453,804,573,2491,62980,87702,115385,62980
7965,2452,832,653,2499,62980,87702,115385,62980
7965,2456,848,636,2500,62980,87702,115385,62980
7965,2447,805,576,2520,62980,87702,115385,62980
7965,2456,751,574,2518,62980,87702,115385,62980
7965,2447,745,563,2539,62980,87702,115385,62980
7965,2451,748,557,2548,62980,87702,115385,62980
8239,2445,787,626,2559,62980,87702,115385,62980
7965,2453,796,629,2499,62980,87702,115385,62980
7965,2460,771,636,2510,62980,87702,115385,62980
7965,2457,742,599,2509,62980,87702,115385,62980
7965,2448,745,607,2522,62980,87702,115385,62980
7965,2452,750,603,2530,62980,87702,115385,62980
7965,2448,747,609,2545,62980,87702,115385,62980
7965,2455,768,619,2550,62980,87702,115385,62980
7965,2445,770,658,2565,62980,87702,115385,62980
8331,2454,794,633,2537,62980,87702,115385,62980
7965,2460,818,597,2547,62980,87702,115385,62980
7965,2453,834,590,2501,62980,87702,115385,62980
7965,2460,821,580,2503,62980,87702,115385,62980
7965,2451,803,616,2512,62980,87702,115385,62980
7965,2449,812,592,2512,62980,87702,115385,62980
7965,2449,870,611,2527,62980,87702,115385,62980
7965,2449,850,587,2532,62980,87702,115385,62980
7965,2453,820,567,2543,62980,87702,115385,62980
8239,2453,791,490,2492,62980,87702,115385,62980
7965,2449,752,483,2503,62980,87702,115385,62980
7965,2456,755,499,2501,62980,87702,115385,62980
7965,2450,818,493,2518,62980,87702,115385,62980
7965,2454,801,495,2519,62980,87702,115385,62980
7965,2450,759,497,2530,62980,87702,115385,62980
7965,2453,716,508,2536,62980,87702,115385,62980
7965,2447,725,516,2550,62980,87702,115385,62980
8239,2455,735,507,2491,62980,87702,115385,62980
7965,2450,766,580,2497,62980,87702,115385,62980
7965,2452,804,571,2506,62980,87702,115385,62980
7965,2446,747,511,2510,62980,87702,115385,62980
7965,2449,716,526,2528,62980,87702,115385,62980
7965,2448,708,519,2542,62980,87702,115385,62980
7965,2456,721,516,2549,62980,87702,115385,62980
7965,2445,742,494,2562,62980,87702,115385,62980
8331,2451,719,555,2539,62980,87702,115385,62980
7965,2453,712,515,2546,62980,87702,115385,62980
7965,2452,730,442,2495,62980,87702,115385,62980
7965,2455,727,433,2507,62980,87702,115385,62980
7965,2455,703,441,2509,62980,87702,115385,62980
7965,2452,693,488,2510,62980,87702,115385,62980
7965,2453,710,486,2532,62980,87702,115385,62980
7965,2450,730,450,2531,62980,87702,115385,62980
7965,2450,783,485,2547,62980,87702,115385,62980
7965,2450,734,474,2550,62980,87702,115385,62980
8239,2451,742,419,2502,62980,87702,115385,62980
7965,2460,726,399,2505,62980,87702,115385,62980
7965,2452,701,446,2513,62980,87702,115385,62980
7965,2454,716,414,2515,62980,87702,115385,62980
7965,2450,768,435,2535,62980,87702,115385,62980
7965,2456,752,431,2535,62980,87702,115385,62980
7965,2449,702,405,2548,62980,87702,115385,62980
7965,2457,663,397,2550,62980,87702,115385,62980
8239,2444,655,362,2507,62980,87702,115385,62980
7965,2456,664,381,2502,62980,87702,115385,62980
7965,2451,724,374,2511,62980,87702,115385,62980
7965,2450,713,373,2515,62980,87702,115385,62980
7965,2450,665,364,2528,62980,87702,115385,62980
7965,2452,625,368,2536,62980,87702,115385,62980
7965,2445,624,387,2544,62980,87702,115385,62980
8331,2461,672,450,2524,62980,87702,115385,62980
7965,2460,665,443,2529,62980,87702,115385,62980
7965,2453,645,474,2495,62980,87702,115385,62980
7965,2460,642,437,2498,62980,87702,115385,62980
7965,2455,655,352,2516,62980,87702,115385,62980
7965,2453,634,425,2512,62980,87702,115385,62980
7965,2450,657,419,2529,62980,87702,115385,62980
7965,2456,651,417,2534,62980,87702,115385,62980
7965,2453,667,426,2546,62980,87702,115385,62980
7965,2449,702,398,2555,62980,87702,115385,62980
7965,2451,710,382,2567,62980,87702,115385,62980
8239,2454,699,371,2503,62980,87702,115385,62980
7965,2455,668,378,2512,62980,87702,115385,62980
7965,2449,678,430,2521,62980,87702,115385,62980
7965,2447,679,422,2528,62980,87702,115385,62980
7965,2451,702,407,2534,62980,87702,115385,62980
7965,2450,763,431,2546,62980,87702,115385,62980
7965,2445,700,418,2553,62980,87702,115385,62980
8331,2447,651,355,2537,62980,87702,115385,62980
7965,2445,657,347,2538,62980,87702,115385,62980
7965,2449,667,435,2498,62980,87702,115385,62980
7965,2459,691,418,2499,62980,87702,115385,62980
7965,2453,658,378,2510,62980,87702,115385,62980
7965,2449,619,345,2515,62980,87702,115385,62980
7965,2446,612,333,2527,62980,87702,115385,62980
7965,2453,611,330,2530,62980,87702,115385,62980
7965,2449,609,314,2534,62980,87702,115385,62980
7965,2452,610,305,2553,62980,87702,115385,62980
8331,2459,597,353,2522,62980,87702,115385,62980
7965,2449,603,326,2535,62980,87702,115385,62980
7965,2460,605,246,2487,62980,87702,115385,62980
7965,2452,636,248,2497,62980,87702,115385,62980
7965,2453,623,241,2504,62980,87702,115385,62980
7965,2449,601,311,2507,62980,87702,115385,62980
7965,2446,617,281,2515,62980,87702,115385,62980
7965,2452,653,328,2548,62980,87702,115385,62980
7965,2453,698,325,2546,62980,87702,115385,62980
7965,2451,667,325,2562,62980,87702,115385,62980
7965,2450,613,288,2570,62980,87702,115385,62980
8331,2452,614,322,2546,62980,87702,115385,62980
7965,2452,653,377,2493,62980,87702,115385,62980
7965,2452,647,382,2507,62980,87702,115385,62980
7965,2456,635,372,2505,62980,87702,115385,62980
7965,2449,605,335,2519,62980,87702,115385,62980
7965,2454,611,361,2526,62980,87702,115385,62980
7965,2444,610,341,2524,62980,87702,115385,62980
7965,2453,622,330,2540,62980,87702,115385,62980
7965,2449,617,311,2547,62980,87702,115385,62980
7965,2459,609,330,2566,62980,87702,115385,62980
8331,2447,590,214,2536,62980,87702,115385,62980
7965,2454,602,191,2546,62980,87702,115385,62980
7965,2460,605,182,2498,62980,87702,115385,62980
7965,2453,583,178,2503,62980,87702,115385,62980
7965,2449,554,210,2507,62980,87702,115385,62980
7965,2451,582,208,2520,62980,87702,115385,62980
7965,2449,621,202,2521,62980,87702,115385,62980
7965,2454,597,188,2536,62980,87702,115385,62980
7965,2449,501,166,2542,62980,87702,115385,62980
7965,2454,492,136,2556,62980,87702,115385,62980
8331,2445,500,213,2529,62980,87702,115385,62980
7965,2453,521,205,2540,62980,87702,115385,62980
7965,2460,503,203,2494,62980,87702,115385,62980
7965,2453,471,210,2503,62980,87702,115385,62980
7965,2454,472,180,2502,62980,87702,115385,62980
7965,2449,470,177,2517,62980,87702,115385,62980
7965,2457,488,188,2522,62980,87702,115385,62980
7965,2449,499,210,2531,62980,87702,115385,62980
7965,2457,510,217,2552,62980,87702,115385,62980
7965,2448,510,215,2570,62980,87702,115385,62980
8331,2453,533,189,2542,62980,87702,115385,62980
7965,2454,567,219,2555,62980,87702,115385,62980
7965,2460,571,243,2495,62980,87702,115385,62980
7965,2459,539,263,2506,62980,87702,115385,62980
7965,2457,562,302,2513,62980,87702,115385,62980
7965,2450,611,336,2522,62980,87702,115385,62980
7965,2453,651,341,2531,62980,87702,115385,62980
7965,2448,614,341,2538,62980,87702,115385,62980
7965,2456,571,354,2551,62980,87702,115385,62980
7965,2447,575,349,2553,62980,87702,115385,62980
8331,2453,620,412,2537,62980,87702,115385,62980
7965,2445,613,414,2542,62980,87702,115385,62980
7965,2457,609,408,2502,62980,87702,115385,62980
7965,2460,591,397,2506,62980,87702,115385,62980
7965,2457,580,341,2515,62980,87702,115385,62980
7965,2446,565,319,2517,62980,87702,115385,62980
7965,2450,569,323,2526,62980,87702,115385,62980
7965,2456,565,293,2531,62980,87702,115385,62980
7965,2451,562,274,2547,62980,87702,115385,62980
7965,2453,560,227,2547,62980,87702,115385,62980
8331,2445,572,207,2536,62980,87702,115385,62980
7965,2451,580,182,2535,62980,87702,115385,62980
7965,2454,558,182,2497,62980,87702,115385,62980
7965,2456,545,217,2494,62980,87702,115385,62980
7965,2450,548,275,2510,62980,87702,115385,62980
7965,2454,626,279,2513,62980,87702,115385,62980
7965,2447,595,273,2520,62980,87702,115385,62980
7965,2455,497,263,2519,62980,87702,115385,62980
7965,2452,504,267,2540,62980,87702,115385,62980
7965,2464,523,294,2542,62980,87702,115385,62980
8331,2446,561,333,2542,62980,87702,115385,62980
7965,2455,566,336,2549,62980,87702,115385,62980
7965,2455,526,323,2495,62980,87702,115385,62980
7965,2462,533,312,2503,62980,87702,115385,62980
7965,2450,554,238,2506,62980,87702,115385,62980
7965,2456,547,327,2521,62980,87702,115385,62980
7965,2453,554,318,2524,62980,87702,115385,62980
7965,2451,558,315,2534,62980,87702,115385,62980
7965,2450,573,294,2547,62980,87702,115385,62980
7965,2453,603,286,2555,62980,87702,115385,62980
7965,2453,608,255,2563,62980,87702,115385,62980
8331,2457,602,256,2536,62980,87702,115385,62980
7965,2461,569,261,2493,62980,87702,115385,62980
7965,2452,576,298,2507,62980,87702,115385,62980
7965,2461,598,386,2509,62980,87702,115385,62980
7965,2450,658,319,2513,62980,87702,115385,62980
7965,2455,627,307,2520,62980,87702,115385,62980
7965,2453,559,303,2530,62980,87702,115385,62980
7965,2455,551,291,2535,62980,87702,115385,62980
7965,2444,540,270,2552,62980,87702,115385,62980
7965,2447,587,334,2557,62980,87702,115385,62980
8331,2445,563,312,2537,62980,87702,115385,62980
7965,2460,538,293,2540,62980,87702,115385,62980
7965,2451,544,252,2497,62980,87702,115385,62980
7965,2464,563,185,2500,62980,87702,115385,62980
7965,2445,536,250,2511,62980,87702,115385,62980
7965,2456,535,242,2519,62980,87702,115385,62980
7965,2453,541,230,2526,62980,87702,115385,62980
7965,2450,545,196,2532,62980,87702,115385,62980
7965,2450,576,223,2542,62980,87702,115385,62980
7965,2452,562,175,2548,62980,87702,115385,62980
8331,2451,527,146,2525,62980,87702,115385,62980
7965,2451,504,182,2560,62980,87702,115385,62980
7965,2458,519,225,2502,62980,87702,115385,62980
7965,2457,557,283,2517,62980,87702,115385,62980
7965,2453,569,266,2515,62980,87702,115385,62980
7965,2451,494,216,2523,62980,87702,115385,62980
7965,2455,506,213,2536,62980,87702,115385,62980
7965,2450,507,247,2547,62980,87702,115385,62980
7965,2455,529,218,2549,62980,87702,115385,62980
7965,2453,555,228,2562,62980,87702,115385,62980
8331,2453,526,281,2539,62980,87702,115385,62980
7965,2453,543,263,2551,62980,87702,115385,62980
7965,2458,560,189,2496,62980,87702,115385,62980
7965,2457,587,179,2509,62980,87702,115385,62980
7965,2455,548,192,2508,62980,87702,115385,62980
7965,2446,554,256,2520,62980,87702,115385,62980
7965,2452,575,253,2529,62980,87702,115385,62980
7965,2452,611,254,2536,62980,87702,115385,62980
7965,2456,664,288,2547,62980,87702,115385,62980
7965,2451,608,265,2553,62980,87702,115385,62980
8331,2457,568,224,2529,62980,87702,115385,62980
7965,2453,567,253,2540,62980,87702,115385,62980
7965,2458,587,326,2502,62980,87702,115385,62980
7965,2460,592,303,2498,62980,87702,115385,62980
7965,2456,598,291,2510,62980,87702,115385,62980
7965,2453,522,224,2518,62980,87702,115385,62980
7965,2452,522,228,2525,62980,87702,115385,62980
7965,2456,513,195,2527,62980,87702,115385,62980
7965,2454,507,180,2542,62980,87702,115385,62980
7965,2451,489,146,2549,62980,87702,115385,62980
8331,2447,489,189,2531,62980,87702,115385,62980
7965,2452,482,144,2532,62980,87702,115385,62980
7965,2459,507,93,2498,62980,87702,115385,62980
7812,2452,467,148,2539,62980,87702,115385,62980
7965,2447,471,138,2556,62980,87702,115385,62980
7965,2453,499,115,2562,62980,87702,115385,62980
8331,2453,457,154,2542,62980,87702,115385,62980
7965,2460,450,143,2549,62980,87702,115385,62980
7965,2453,450,101,2503,62980,87702,115385,62980
7965,2464,462,48,2510,62980,87702,115385,62980
7812,2447,435,134,2554,62980,87702,115385,62980
7965,2447,491,156,2559,62980,87702,115385,62980
8331,2456,500,239,2541,62980,87702,115385,62980
7965,2464,490,253,2549,62980,87702,115385,62980
7965,2458,494,252,2497,62980,87702,115385,62980
7965,2464,526,247,2501,62980,87702,115385,62980
7965,2455,520,190,2511,62980,87702,115385,62980
7965,2451,535,282,2516,62980,87702,115385,62980
7965,2448,534,284,2525,62980,87702,115385,62980
7965,2449,554,288,2536,62980,87702,115385,62980
7965,2456,573,262,2541,62980,87702,115385,62980
7965,2451,603,310,2559,62980,87702,115385,62980
8331,2452,598,239,2531,62980,87702,115385,62980
7965,2454,587,261,2546,62980,87702,115385,62980
7965,2456,567,275,2495,62980,87702,115385,62980
7965,2460,575,337,2507,62980,87702,115385,62980
7965,2456,613,364,2505,62980,87702,115385,62980
7965,2454,632,322,2521,62980,87702,115385,62980
7965,2456,555,309,2515,62980,87702,115385,62980
7965,2451,551,322,2525,62980,87702,115385,62980
7965,2455,558,333,2535,62980,87702,115385,62980
7965,2446,558,300,2549,62980,87702,115385,62980
8331,2454,596,364,2525,62980,87702,115385,62980
7965,2458,569,358,2540,62980,87702,115385,62980
7965,2454,573,326,2494,62980,87702,115385,62980
7965,2457,579,246,2514,62980,87702,115385,62980
7965,2456,629,246,2514,62980,87702,115385,62980
7965,2454,578,314,2523,62980,87702,115385,62980
7995,2458,599,320,2523,62980,87890,115620,62980
7965,2445,847,519,2526,62980,87890,115620,62980
7965,2452,924,569,2533,62980,87890,115620,62980
7965,2451,915,559,2548,62980,87890,115620,62980
7965,2449,877,555,2555,62980,87890,115620,62980
8331,2445,832,499,2537,62980,87890,115620,62980
7965,2454,844,553,2549,62980,87890,115620,62980
7965,2453,863,571,2498,62980,87890,115620,62980
7965,2459,860,576,2508,62980,87890,115620,62980
7965,2455,827,566,2507,62980,87890,115620,62980
7965,2457,833,544,2523,62980,87890,115620,62980
7965,2452,836,569,2522,62980,87890,115620,62980
7965,2449,848,568,2536,62980,87890,115620,62980
7965,2458,870,576,2538,62980,87890,115620,62980
7965,2453,885,586,2554,62980,87890,115620,62980
7965,2453,892,602,2561,62980,87890,115620,62980
8331,2453,902,541,2538,62980,87890,115620,62980
7965,2461,945,551,2496,62980,87890,115620,62980
7965,2453,935,557,2501,62980,87890,115620,62980
7965,2457,937,565,2502,62980,87890,115620,62980
7965,2452,921,601,2517,62980,87890,115620,62980
7965,2456,954,595,2511,62980,87890,115620,62980
7965,2455,990,604,2526,62980,87890,115620,62980
7965,2452,971,603,2534,62980,87890,115620,62980
7965,2446,889,591,2548,62980,87890,115620,62980
7965,2457,898,563,2552,62980,87890,115620,62980
8331,2447,936,639,2534,62980,87890,115620,62980
7965,2461,926,629,2536,62980,87890,115620,62980
7965,2458,908,607,2494,62980,87890,115620,62980
7965,2463,887,585,2517,62980,87890,115620,62980
7965,2453,861,541,2518,62980,87890,115620,62980
7965,2453,869,533,2525,62980,87890,115620,62980
7965,2456,868,523,2531,62980,87890,115620,62980
7965,2447,877,531,2546,62980,87890,115620,62980
7965,2453,874,505,2552,62980,87890,115620,62980
7965,2457,863,500,2568,62980,87890,115620,62980
8331,2452,871,433,2538,62980,87890,115620,62980
7965,2460,895,450,2557,62980,87890,115620,62980
7965,2460,889,442,2496,62980,87890,115620,62980
7965,2458,859,461,2508,62980,87890,115620,62980
7965,2456,865,463,2509,62980,87890,115620,62980
7965,2451,950,495,2526,62980,87890,115620,62980
7965,2460,943,516,2532,62980,87890,115620,62980
7965,2449,904,523,2544,62980,87890,115620,62980
7965,2458,863,530,2540,62980,87890,115620,62980
7965,2447,882,550,2557,62980,87890,115620,62980
8331,2456,922,589,2535,62980,87890,115620,62980
7965,2449,911,618,2545,62980,87890,115620,62980
7965,2464,894,620,2496,62980,87890,115620,62980
7965,2458,895,601,2505,62980,87890,115620,62980
7965,2453,900,565,2507,62980,87890,115620,62980
7965,2443,897,573,2516,62980,87890,115620,62980
7965,2454,917,581,2526,62980,87890,115620,62980
7965,2452,915,568,2527,62980,87890,115620,62980
7965,2451,925,556,2537,62980,87890,115620,62980
7965,2448,928,534,2556,62980,87890,115620,62980
8331,2460,963,511,2536,62980,87890,115620,62980
7965,2455,951,500,2534,62980,87890,115620,62980
7965,2458,942,502,2505,62980,87890,115620,62980
7965,2460,914,501,2498,62980,87890,115620,62980
7965,2453,933,543,2508,62980,87890,115620,62980
7965,2456,973,516,2518,62980,87890,115620,62980
7965,2450,943,516,2531,62980,87890,115620,62980
7965,2460,865,490,2538,62980,87890,115620,62980
7965,2446,862,498,2553,62980,87890,115620,62980
7965,2453,907,464,2558,62980,87890,115620,62980
8331,2449,886,522,2542,62980,87890,115620,62980
7965,2459,870,509,2544,62980,87890,115620,62980
7965,2453,837,487,2504,62980,87890,115620,62980
7965,2460,840,440,2502,62980,87890,115620,62980
7965,2448,837,351,2512,62980,87890,115620,62980
7965,2455,812,419,2515,62980,87890,115620,62980
7965,2448,811,410,2531,62980,87890,115620,62980
7965,2454,805,411,2534,62980,87890,115620,62980
7965,2451,805,394,2543,62980,87890,115620,62980
7965,2461,839,429,2554,62980,87890,115620,62980
8331,2454,826,385,2532,62980,87890,115620,62980
7965,2460,837,405,2537,62980,87890,115620,62980
7965,2451,803,410,2497,62980,87890,115620,62980
7965,2465,832,479,2504,62980,87890,115620,62980
7965,2453,866,545,2506,62980,87890,115620,62980
7965,2450,908,513,2515,62980,87890,115620,62980
7965,2450,881,530,2521,62980,87890,115620,62980
7965,2459,856,554,2530,62980,87890,115620,62980
7965,2452,875,569,2535,62980,87890,115620,62980
7965,2457,884,578,2548,62980,87890,115620,62980
7965,2451,924,638,2553,62980,87890,115620,62980
8331,2460,900,652,2532,62980,87890,115620,62980
7965,2457,912,625,2490,62980,87890,115620,62980
7965,2455,922,594,2502,62980,87890,115620,62980
7965,2456,950,538,2500,62980,87890,115620,62980
7965,2451,921,610,2512,62980,87890,115620,62980
7965,2455,929,600,2517,62980,87890,115620,62980
7965,2448,930,599,2537,62980,87890,115620,62980
7965,2455,945,560,2548,62980,87890,115620,62980
7965,2444,1007,591,2563,62980,87890,115620,62980
7965,2459,954,533,2572,62980,87890,115620,62980
8331,2445,927,538,2542,62980,87890,115620,62980
7965,2464,916,552,2556,62980,87890,115620,62980
7965,2457,921,604,2504,62980,87890,115620,62980
7965,2460,957,663,2508,62980,87890,115620,62980
7965,2459,958,604,2514,62980,87890,115620,62980
7965,2454,897,616,2519,62980,87890,115620,62980
7965,2448,903,614,2529,62980,87890,115620,62980
7965,2452,907,594,2539,62980,87890,115620,62980
7965,2454,885,561,2550,62980,87890,115620,62980
7965,2453,899,617,2563,62980,87890,115620,62980
8331,2447,870,597,2537,62980,87890,115620,62980
7965,2452,881,557,2551,62980,87890,115620,62980
7965,2453,886,480,2499,62980,87890,115620,62980
7965,2459,920,480,2505,62980,87890,115620,62980
7965,2453,868,486,2506,62980,87890,115620,62980
7965,2448,881,538,2518,62980,87890,115620,62980
7965,2452,899,535,2519,62980,87890,115620,62980
7965,2453,940,553,2537,62980,87890,115620,62980
7965,2453,982,549,2543,62980,87890,115620,62980
7965,2451,935,564,2555,62980,87890,115620,62980
8331,2449,911,519,2525,62980,87890,115620,62980
7965,2454,929,568,2543,62980,87890,115620,62980
7965,2462,980,646,2490,62980,87890,115620,62980
7965,2455,973,668,2504,62980,87890,115620,62980
7965,2463,981,666,2500,62980,87890,115620,62980
7965,2446,942,642,2511,62980,87890,115620,62980
7965,2456,950,658,2522,62980,87890,115620,62980
7965,2446,951,640,2534,62980,87890,115620,62980
7965,2455,960,623,2553,62980,87890,115620,62980
7965,2451,937,598,2567,62980,87890,115620,62980
8331,2449,937,634,2543,62980,87890,115620,62980
7965,2451,938,577,2556,62980,87890,115620,62980
7965,2458,959,527,2500,62980,87890,115620,62980
7965,2455,960,509,2508,62980,87890,115620,62980
7965,2453,929,532,2517,62980,87890,115620,62980
7965,2455,926,561,2515,62980,87890,115620,62980
7965,2453,943,538,2532,62980,87890,115620,62980
7965,2452,1007,559,2534,62980,87890,115620,62980
7965,2453,991,562,2554,62980,87890,115620,62980
7965,2453,926,552,2556,62980,87890,115620,62980
8331,2449,914,537,2541,62980,87890,115620,62980
7965,2457,924,569,2536,62980,87890,115620,62980
7965,2451,947,616,2502,62980,87890,115620,62980
7965,2455,935,602,2504,62980,87890,115620,62980
7965,2452,905,592,2510,62980,87890,115620,62980
7965,2454,900,558,2514,62980,87890,115620,62980
7965,2449,904,552,2529,62980,87890,115620,62980
7965,2456,914,553,2524,62980,87890,115620,62980
7965,2453,922,562,2539,62980,87890,115620,62980
7965,2440,936,558,2547,62980,87890,115620,62980
8331,2450,926,587,2532,62980,87890,115620,62980
7965,2460,953,519,2534,62980,87890,115620,62980
7965,2453,992,528,2496,62980,87890,115620,62980
7965,2465,990,540,2497,62980,87890,115620,62980
7965,2449,979,553,2507,62980,87890,115620,62980
7965,2454,967,612,2513,62980,87890,115620,62980
7965,2449,1001,634,2517,62980,87890,115620,62980
7965,2450,1061,637,2524,62980,87890,115620,62980
7965,2450,1021,626,2530,62980,87890,115620,62980
7965,2455,961,616,2539,62980,87890,115620,62980
7965,2451,953,590,2567,62980,87890,115620,62980
8331,2457,994,653,2550,62980,87890,115620,62980
7965,2457,971,601,2495,62980,87890,115620,62980
7965,2465,951,599,2506,62980,87890,115620,62980
7965,2452,918,560,2511,62980,87890,115620,62980
7965,2451,900,531,2520,62980,87890,115620,62980
7965,2451,892,502,2526,62980,87890,115620,62980
7965,2449,885,493,2537,62980,87890,115620,62980
7965,2455,880,462,2539,62980,87890,115620,62980
7965,2449,867,425,2556,62980,87890,115620,62980
7965,2457,851,404,2560,62980,87890,115620,62980
8331,2445,852,335,2546,62980,87890,115620,62980
7965,2457,867,342,2549,62980,87890,115620,62980
7965,2453,848,353,2503,62980,87890,115620,62980
7965,2465,828,377,2507,62980,87890,115620,62980
7965,2454,840,399,2514,62980,87890,115620,62980
7965,2453,905,438,2515,62980,87890,115620,62980
7965,2449,897,456,2525,62980,87890,115620,62980
7965,2453,877,463,2536,62980,87890,115620,62980
7965,2450,821,471,2545,62980,87890,115620,62980
7965,2454,860,508,2558,62980,87890,115620,62980
8331,2447,874,547,2536,62980,87890,115620,62980
7965,2460,887,576,2543,62980,87890,115620,62980
7965,2445,863,560,2499,62980,87890,115620,62980
7965,2454,887,573,2505,62980,87890,115620,62980
7965,2453,883,494,2510,62980,87890,115620,62980
7965,2451,899,596,2516,62980,87890,115620,62980
7965,2448,908,593,2522,62980,87890,115620,62980
7965,2447,911,603,2535,62980,87890,115620,62980
7965,2454,935,578,2539,62980,87890,115620,62980
7965,2445,925,562,2554,62980,87890,115620,62980
8331,2454,961,526,2528,62980,87890,115620,62980
7965,2455,957,533,2555,62980,87890,115620,62980
7965,2459,920,548,2492,62980,87890,115620,62980
7965,2462,934,561,2511,62980,87890,115620,62980
7965,2455,967,655,2509,62980,87890,115620,62980
7965,2450,1014,585,2517,62980,87890,115620,62980
7965,2455,978,582,2523,62980,87890,115620,62980
7965,2453,893,578,2542,62980,87890,115620,62980
7965,2454,899,579,2546,62980,87890,115620,62980
7965,2454,936,569,2560,62980,87890,115620,62980
8331,2450,927,620,2531,62980,87890,115620,62980
7965,2457,913,622,2545,62980,87890,115620,62980
7965,2453,900,609,2493,62980,87890,115620,62980
7965,2451,899,577,2508,62980,87890,115620,62980
7965,2452,898,527,2505,62980,87890,115620,62980
7965,2445,908,593,2518,62980,87890,115620,62980
7965,2455,918,601,2527,62980,87890,115620,62980
7965,2452,913,575,2529,62980,87890,115620,62980
7965,2452,937,541,2546,62980,87890,115620,62980
7965,2450,921,581,2549,62980,87890,115620,62980
8331,2444,945,522,2533,62980,87890,115620,62980
7965,2449,925,507,2537,62980,87890,115620,62980
7965,2453,903,521,2498,62980,87890,115620,62980
7965,2457,907,556,2500,62980,87890,115620,62980
7965,2451,941,624,2506,62980,87890,115620,62980
7965,2454,984,558,2514,62980,87890,115620,62980
7965,2448,951,570,2521,62980,87890,115620,62980
7965,2450,908,581,2525,62980,87890,115620,62980
7965,2445,921,617,2536,62980,87890,115620,62980
7965,2456,919,576,2540,62980,87890,115620,62980
8331,2453,958,667,2529,62980,87890,115620,62980
7965,2453,921,645,2530,62980,87890,115620,62980
7965,2452,938,646,2499,62980,87890,115620,62980
7965,2460,948,539,2507,62980,87890,115620,62980
7965,2452,955,549,2512,62980,87890,115620,62980
7965,2454,933,617,2517,62980,87890,115620,62980
7965,2450,932,618,2529,62980,87890,115620,62980
7965,2450,950,626,2534,62980,87890,115620,62980
7965,2448,982,613,2541,62980,87890,115620,62980
7965,2457,1049,652,2558,62980,87890,115620,62980
7965,2452,984,575,2568,62980,87890,115620,62980
8331,2453,941,587,2544,62980,87890,115620,62980
7965,2454,940,588,2500,62980,87890,115620,62980
7965,2460,955,676,2502,62980,87890,115620,62980
7965,2457,964,646,2505,62980,87890,115620,62980
7965,2452,974,588,2518,62980,87890,115620,62980
7965,2453,904,588,2525,62980,87890,115620,62980
7965,2452,922,605,2535,62980,87890,115620,62980
7965,2451,919,594,2537,62980,87890,115620,62980
7965,2453,930,602,2550,62980,87890,115620,62980
7965,2449,960,650,2556,62980,87890,115620,62980
8331,2453,944,642,2538,62980,87890,115620,62980
7965,2454,954,596,2543,62980,87890,115620,62980
7965,2453,975,543,2504,62980,87890,115620,62980
7965,2451,1013,541,2498,62980,87890,115620,62980
7965,2450,956,606,2511,62980,87890,115620,62980
7965,2454,972,610,2510,62980,87890,115620,62980
7965,2451,981,578,2527,62980,87890,115620,62980
7965,2453,1023,615,2528,62980,87890,115620,62980
7965,2448,1059,618,2544,62980,87890,115620,62980
7965,2454,989,557,2552,62980,87890,115620,62980
8331,2455,957,577,2525,62980,87890,115620,62980
