7995,219,213,213,230,6345,6345,6345,6345
7995,228,216,211,225,6345,6345,6345,6345
7995,219,210,214,227,6345,6345,6345,6345
7995,223,217,213,221,6345,6345,6345,6345
7995,225,209,208,222,6345,6345,6345,6345
7995,220,215,214,225,6345,6345,6345,6345
7995,221,208,213,230,6345,6345,6345,6345
7995,217,212,215,225,6345,6345,6345,6345
7995,217,206,216,223,6345,6345,6345,6345
7995,220,214,218,223,6345,6345,6345,6345
8361,216,207,214,225,6345,6345,6345,6345
7995,225,216,212,226,6345,6345,6345,6345
7995,220,210,212,221,6345,6345,6345,6345
7995,225,214,210,227,6345,6345,6345,6345
7995,220,213,211,224,6345,6345,6345,6345
7995,221,217,217,226,6345,6345,6345,6345
7995,225,206,208,222,6345,6345,6345,6345
7995,215,209,210,226,6345,6345,6345,6345
7995,223,213,209,223,6345,6345,6345,6345
7995,217,214,216,228,6345,6345,6345,6345
7995,217,211,209,223,6345,6345,6345,6345
7995,225,210,2217995,1466,1281,1211,1465,6345,10542,14880,6345
7843,1466,1281,1240,1477,6345,10542,14880,6345
8117,1465,1277,1250,1474,6345,10542,14880,6345
8117,1466,1261,1248,1478,6345,10542,14880,6345
7751,1469,1321,1207,1474,6345,10542,14880,6345
8117,1463,1226,1238,1472,6345,10542,14880,6345
8117,1458,1267,1180,1477,6345,10542,14880,6345
7751,1459,1220,1221,1478,6345,10542,14880,6345
8087,1465,1220,1227,1472,6345,10542,14880,6345
8117,1457,1260,1227,1469,6345,10542,14880,6345
7751,1467,1220,1223,1479,6345,10542,14880,6345
8117,1464,1291,1222,1474,6345,10542,14880,6345
8117,1464,1252,1132,1471,6345,10542,14880,6345
7751,1466,1214,1217,1487,6345,10542,14880,6345
8117,1463,1206,1174,1473,6345,10542,14880,6345
8117,1466,1248,1218,1468,6345,10542,14880,6345
8117,1469,1233,1221,1478,6345,10542,14880,6345
7751,1469,1295,1177,1477,6345,10542,14880,6345
8117,1466,1214,1216,1467,6345,10542,14880,6345
8117,1464,1253,1167,1477,6345,10542,14880,6345
7751,1463,1218,1209,1476,6345,10542,14880,6345
8117,1466,1208,1225,1469,6345,10542,14880,6345
8117,1466,1255,1230,1482,6345,10542,14880,6345
7751,1461,1291,1216,1481,6345,10542,14880,6345
8117,1467,1289,1227,1471,6345,10542,14880,6345
8117,1466,1256,1152,1480,6345,10542,14880,6345
7751,1472,1217,1242,1478,6345,10542,14880,6345
8087,1467,1225,1202,1471,6345,10542,14880,6345
8117,1464,1273,1251,1474,6345,10542,14880,6345
7751,1466,1255,1253,1482,6345,10542,14880,6345
8117,1465,1316,1219,1476,6345,10542,14880,6345
8117,1469,1240,1258,1469,6345,10542,14880,6345
8117,1461,1279,1201,1479,6345,10542,14880,6345
7751,1463,1239,1245,1473,6345,10542,14880,6345
8117,1465,1273,1262,1470,6345,10542,14880,6345
8117,1464,1280,1259,1477,6345,10542,14880,6345
7751,1465,1320,1249,1472,6345,10542,14880,6345
8117,1461,1312,1255,1473,6345,10542,14880,6345
8117,1461,1279,1174,1480,6345,10542,14880,6345
7751,1461,1243,1260,1476,6345,10542,14880,6345
8117,1464,1241,1224,1469,6345,10542,14880,6345
8117,1469,1286,1260,1482,6345,10542,14880,6345
7751,1461,1248,1254,1474,6345,10542,14880,6345
8117,1463,1328,1219,1476,6345,10542,14880,6345
8117,1466,1256,1255,1468,6345,10542,14880,6345
7751,1463,1330,1258,1483,6345,10542,14880,6345
8087,1465,1249,1241,1475,6345,10542,14880,6345
8117,1466,1285,1246,1469,6345,10542,14880,6345
8117,1469,1279,1246,1477,6345,10542,14880,6345
7751,1462,1331,1238,1479,6345,10542,14880,6345
8117,1464,1279,1246,1469,6345,10542,14880,6345
8117,1465,1281,1161,1479,6345,10542,14880,6345
7751,1464,1243,1251,1477,6345,10542,14880,6345
8117,1464,1236,1170,1470,6345,10542,14880,6345
8117,1471,1283,1255,1480,6345,10542,14880,6345
7751,1465,1248,1251,1476,6345,10542,14880,6345
8117,1467,1332,1220,1470,6345,10542,14880,6345
8117,1463,1254,1251,1484,6345,10542,14880,6345
7751,1461,1329,1261,1478,6345,10542,14880,6345
8117,1467,1245,1215,1476,6345,10542,14880,6345
8117,1465,1256,1259,1466,6345,10542,14880,6345
7751,1460,1250,1210,1474,6345,10542,14880,6345
8117,1467,1335,1209,1470,6345,10542,14880,6345
8117,1460,1251,1243,1468,6345,10542,14880,6345
7751,1466,1290,1206,1475,6345,10542,14880,6345
8087,1461,1255,1244,1472,6345,10542,14880,6345
8117,1458,1292,1171,1470,6345,10542,14880,6345
8117,1466,1295,1246,1475,6345,10542,14880,6345
7751,1469,1258,1244,1474,6345,10542,14880,6345
8117,1467,1335,1241,1470,6345,10542,14880,6345
8117,1459,1262,1230,1480,6345,10542,14880,6345
7751,1462,1328,1235,1472,6345,10542,14880,6345
8117,1467,1248,1190,1471,6345,10542,14880,6345
8117,1458,1256,1221,1479,6345,10542,14880,6345
7751,1464,1251,1190,1476,6345,10542,14880,6345
8117,1463,1337,1183,1474,6345,10542,14880,6345
8117,1460,1251,1224,1471,6345,10542,14880,6345
7751,1466,1330,1179,1480,6345,10542,14880,6345
8117,1461,1241,1219,1472,6345,10542,14880,6345
8117,1471,1284,1177,1467,6345,10542,14880,6345
7751,1464,1285,1209,1483,6345,10542,14880,6345
8117,1462,1255,1222,1474,6345,10542,14880,6345
8117,1465,1289,1225,1472,6345,10542,14880,6345
7751,1466,1289,1200,1484,6345,10542,14880,6345
8117,1462,1322,1227,1475,6345,10542,14880,6345
8117,1466,1293,1147,1474,6345,10542,14880,6345
8117,1464,1295,1236,1477,6345,10542,14880,6345
7751,1467,1254,1200,1474,6345,10542,14880,6345
8117,1465,1295,1241,1472,6345,10542,14880,6345
8117,1463,1256,1248,1478,6345,10542,14880,6345
7751,1462,1341,1210,1475,6345,10542,14880,6345
8117,1462,1259,1237,1466,6345,10542,14880,6345
8117,1465,1302,1240,1480,6345,10542,14880,6345
7751,1457,1261,1206,1477,6345,10542,14880,6345
8117,1467,1271,1244,1470,6345,10542,14880,6345
8117,1469,1297,1249,1477,6345,10542,14880,6345
7751,1459,1348,1202,1474,6345,10542,14880,6345
8117,1464,1255,1246,1469,6345,10542,14880,6345
8117,1462,1299,1161,1468,6345,10542,14880,6345
7751,1466,1254,1245,1476,6345,10542,14880,6345
8117,1463,1254,1222,1474,6345,10542,14880,6345
8117,1458,1292,1240,1468,6345,10542,14880,6345
7751,1461,1255,1239,1475,6345,10542,14880,6345
8117,1464,1327,1211,1473,6345,10542,14880,6345
8117,1463,1293,1204,1469,6345,10542,14880,6345
7751,1466,1284,1236,1477,6345,10542,14880,6345
8117,1464,1246,1196,1474,6345,10542,14880,6345
8117,1460,1287,1233,1469,6345,10542,14880,6345
8117,1471,1277,1229,1482,6345,10542,14880,6345
7751,1457,1320,1184,1478,6345,10542,14880,6345
8117,1469,1242,1217,1472,6345,10542,14880,6345
8117,1469,1277,1139,1480,6345,10542,14880,6345
7751,1467,1236,1206,1477,6345,10542,14880,6345
8117,1468,1233,1209,1470,6345,10542,14880,6345
8117,1462,1269,1208,1484,6345,10542,14880,6345
7751,1469,1248,1203,1476,6345,10542,14880,6345
8117,1471,1302,1206,1469,6345,10542,14880,6345
8117,1466,1262,1117,1481,6345,10542,14880,6345
7751,1462,1222,1203,1478,6345,10542,14880,6345
8117,1466,1228,1166,1471,6345,10542,14880,6345
8117,1467,1266,1209,1473,6345,10542,14880,6345
7843,1462,1245,1200,1471,6345,10499,14889,6345
8117,1461,1212,1230,1469,6345,10499,14889,6345
7751,1461,1212,1146,1482,6345,10499,14889,6345
8117,1466,1170,1224,1475,6345,10499,14889,6345
8117,1467,1212,1146,1466,6345,10499,14889,6345
8117,1462,1210,1226,1477,6345,10499,14889,6345
7751,1466,1172,1227,1475,6345,10499,14889,6345
8117,1468,1208,1221,1472,6345,10499,14889,6345
8117,1471,1175,1214,1479,6345,10499,14889,6345
7751,1460,1248,1209,1474,6345,10499,14889,6345
8117,1467,1170,1186,1467,6345,10499,14889,6345
8117,1461,1198,1221,1482,6345,10499,14889,6345
7751,1466,1157,1187,1477,6345,10499,14889,6345
8117,1461,1242,1213,1469,6345,10499,14889,6345
8117,1471,1196,1225,1478,6345,10499,14889,6345
7751,1463,1244,1183,1477,6345,10499,14889,6345
8117,1465,1168,1229,1470,6345,10499,14889,6345
8117,1462,1203,1159,1466,6345,10499,14889,6345
7751,1464,1167,1227,1480,6345,10499,14889,6345
8117,1465,1177,1235,1473,6345,10499,14889,6345
8117,1469,1209,1246,1471,6345,10499,14889,6345
7751,1466,1179,1241,1482,6345,10499,14889,6345
8117,1464,1242,1250,1478,6345,10499,14889,6345
8117,1461,1219,1169,1468,6345,10499,14889,6345
8117,1464,1186,1260,1481,6345,10499,14889,6345
7751,1469,1173,1221,1472,6345,10499,14889,6345
8117,1462,1223,1257,1473,6345,10499,14889,6345
8117,1463,1186,1260,1477,6345,10499,14889,6345
7751,1464,1250,1217,1476,6345,10499,14889,6345
8117,1460,1190,1251,1467,6345,10499,14889,6345
8117,1471,1227,1215,1476,6345,10499,14889,6345
7751,1469,1186,1235,1477,6345,10499,14889,6345
8117,1466,1190,1265,1473,6345,10499,14889,6345
8117,1464,1222,1258,1482,6345,10499,14889,6345
7751,1464,1256,1243,1474,6345,10499,14889,6345
8117,1465,1243,1258,1468,6345,10499,14889,6345
8117,1462,1219,1174,1480,6345,10499,14889,6345
7751,1466,1178,1244,1478,6345,10499,14889,6345
8117,1467,1174,1203,1471,6345,10499,14889,6345
8117,1462,1211,1239,1466,6345,10499,14889,6345
7751,1460,1169,1232,1482,6345,10499,14889,6345
8117,1464,1240,1201,1472,6345,10499,14889,6345
8117,1467,1180,1225,1471,6345,10499,14889,6345
7751,1464,1207,1236,1477,6345,10499,14889,6345
8117,1463,1171,1200,1470,6345,10499,14889,6345
8117,1469,1175,1241,1465,6345,10499,14889,6345
8117,1466,1202,1237,1473,6345,10499,14889,6345
7751,1464,1243,1194,1475,6345,10499,14889,6345
8117,1462,1167,1233,1468,6345,10499,14889,6345
8117,1460,1207,1149,1474,6345,10499,14889,6345
7751,1463,1158,1226,1478,6345,10499,14889,6345
8117,1464,1196,1227,1471,6345,10499,14889,6345
8117,1468,1196,1222,1480,6345,10499,14889,6345
7751,1469,1158,1216,1475,6345,10499,14889,6345
8117,1461,1229,1219,1475,6345,10499,14889,6345
8117,1466,1189,1179,1485,6345,10499,14889,6345
7751,1470,1209,1219,1470,6345,10499,14889,6345
8117,1462,1151,1179,1476,6345,10499,14889,6345
8117,1467,1187,1221,1475,6345,10499,14889,6345
7751,1469,1151,1190,1481,6345,10499,14889,6345
8117,1467,1237,1182,1473,6345,10499,14889,6345
8117,1461,1151,1217,1467,6345,10499,14889,6345
7751,1470,1233,1187,1482,6345,10499,14889,6345
8117,1467,1148,1217,1473,6345,10499,14889,6345
8117,1465,1187,1221,1467,6345,10499,14889,6345
7751,1464,1189,1181,1483,6345,10499,14889,6345
8117,1466,1168,1213,1473,6345,10499,14889,6345
8117,1461,1186,1218,1472,6345,10499,14889,6345
8117,1464,1186,1138,1473,6345,10499,14889,6345
7751,1469,1150,1209,1473,6345,10499,14889,6345
8117,1469,1190,1130,1467,6345,10499,14889,6345
8117,1462,1184,1209,1476,6345,10499,14889,6345
7751,1469,1154,1208,1477,6345,10499,14889,6345
8117,1464,1181,1208,1467,6345,10499,14889,6345
8117,1466,1149,1203,1477,6345,10499,14889,6345
7751,1464,1217,1207,1476,6345,10499,14889,6345
8117,1468,1150,1168,1470,6345,10499,14889,6345
8117,1461,1176,1203,1479,6345,10499,14889,6345
7751,1460,1145,1176,1479,6345,10499,14889,6345
8117,1464,1230,1198,1469,6345,10499,14889,6345
8117,1462,1181,1216,1467,6345,10499,14889,6345
7751,1460,1228,1173,1477,6345,10499,14889,6345
8117,1467,1142,1204,1473,6345,10499,14889,6345
8117,1469,1191,1139,1468,6345,10499,14889,6345
7751,1463,1145,1201,1482,6345,10499,14889,6345
8117,1467,1145,1211,1476,6345,10499,14889,6345
8117,1466,1185,1214,1472,6345,10499,14889,6345
7751,1466,1163,1212,1487,6345,10499,14889,6345
8117,1461,1228,1220,1474,6345,10499,14889,6345
8117,1461,1194,1154,1476,6345,10499,14889,6345
8117,1466,1164,1233,1478,6345,10499,14889,6345
7751,1464,1163,1194,1475,6345,10499,14889,6345
8117,1460,1198,1233,1470,6345,10499,14889,6345
8117,1466,1160,1233,1478,6345,10499,14889,6345
7751,1458,1237,1202,1477,6345,10499,14889,6345
8117,1464,1166,1238,1469,6345,10499,14889,6345
8117,1460,1199,1231,1476,6345,10499,14889,6345
7751,1467,1161,1199,1480,6345,10499,14889,6345
8117,1463,1168,1238,1469,6345,10499,14889,6345
8117,1467,1200,1243,1481,6345,10499,14889,6345
7751,1464,1244,1225,1477,6345,10499,14889,6345
8117,1465,1226,1248,1474,6345,10499,14889,6345
8117,1464,1210,1168,1467,6345,10499,14889,6345
7751,1466,1172,1254,1478,6345,10499,14889,6345
8117,1464,1171,1226,1474,6345,10499,14889,6345
8117,1465,1213,1261,1470,6345,10499,14889,6345
7751,1473,1178,1253,1477,6345,10499,14889,6345
8117,1466,1252,1221,1469,6345,10499,14889,6345
8117,1461,1192,1245,1469,6345,10499,14889,6345
7751,1466,1213,1251,1483,6345,10499,14889,6345
8117,1465,1168,1210,1470,6345,10499,14889,6345
8117,1466,1182,1251,1466,6345,10499,14889,6345
8117,1463,1207,1250,1472,6345,10499,14889,6345
7751,1465,1251,1206,1469,6345,10499,14889,6345
8117,1466,1172,1243,1465,6345,10499,14889,6345
8117,1464,1208,1164,1478,6345,10499,14889,6345
7751,1464,1170,1243,1478,6345,10499,14889,6345
8117,1461,1201,1246,1471,6345,10499,14889,6345
8117,1466,1208,1246,1483,6345,10499,14889,6345
7751,1469,1173,1247,1475,6345,10499,14889,6345
8117,1463,1244,1250,1470,6345,10499,14889,6345
8117,1467,1210,1210,1477,6345,10499,14889,6345
7751,1458,1230,1257,1480,6345,10499,14889,6345
8117,1462,1172,1213,1469,6345,10499,14889,6345
8117,1459,1208,1254,1471,6345,10499,14889,6345
7843,1470,1185,1256,1476,6345,10528,14894,6345
8117,1467,1233,1258,1471,6345,10528,14894,6345
7751,1467,1230,1208,1482,6345,10528,14894,6345
8117,1462,1242,1250,1474,6345,10528,14894,6345
8117,1466,1234,1173,1467,6345,10528,14894,6345
8117,1466,1230,1250,1477,6345,10528,14894,6345
7751,1466,1190,1219,1476,6345,10528,14894,6345
8117,1460,1226,1255,1469,6345,10528,14894,6345
8117,1465,1192,1249,1475,6345,10528,14894,6345
7751,1465,1264,1223,1476,6345,10528,14894,6345
8117,1464,1195,1248,1470,6345,10528,14894,6345
8117,1467,1225,1258,1476,6345,10528,14894,6345
7751,1466,1197,1219,1475,6345,10528,14894,6345
8117,1466,1216,1257,1470,6345,10528,14894,6345
8117,1470,1227,1260,1483,6345,10528,14894,6345
7751,1457,1268,1213,1476,6345,10528,14894,6345
8117,1466,1191,1252,1473,6345,10528,14894,6345
8117,1462,1227,1174,1465,6345,10528,14894,6345
7751,1456,1195,1251,1482,6345,10528,14894,6345
8117,1467,1190,1249,1468,6345,10528,14894,6345
8117,1469,1228,1250,1472,6345,10528,14894,6345
7751,1464,1192,1245,1483,6345,10528,14894,6345
8117,1462,1263,1255,1476,6345,10528,14894,6345
8117,1471,1227,1175,1469,6345,10528,14894,6345
7751,1466,1214,1262,1485,6345,10528,14894,6345
8117,1464,1197,1222,1472,6345,10528,14894,6345
8117,1463,1230,1262,1470,6345,10528,14894,6345
8117,1466,1221,1263,1477,6345,10528,14894,6345
7751,1462,1270,1225,1476,6345,10528,14894,6345
8117,1465,1204,1266,1473,6345,10528,14894,6345
8117,1466,1234,1203,1479,6345,10528,14894,6345
7751,1461,1199,1260,1476,6345,10528,14894,6345
8117,1466,1207,1264,1470,6345,10528,14894,6345
8117,1466,1240,1270,1481,6345,10528,14894,6345
7751,1460,1230,1269,1478,6345,10528,14894,6345
8117,1464,1270,1271,1471,6345,10528,14894,6345
8117,1466,1241,1190,1483,6345,10528,14894,6345
7751,1467,1206,1263,1478,6345,10528,14894,6345
8117,1462,1194,1235,1471,6345,10528,14894,6345
8117,1466,1235,1274,1469,6345,10528,14894,6345
7751,1460,1204,1268,1476,6345,10528,14894,6345
8117,1465,1279,1235,1472,6345,10528,14894,6345
8117,1469,1206,1268,1468,6345,10528,14894,6345
7751,1461,1240,1275,1481,6345,10528,14894,6345
8117,1461,1206,1239,1473,6345,10528,14894,6345
8117,1466,1211,1277,1468,6345,10528,14894,6345
7751,1458,1236,1275,1477,6345,10528,14894,6345
8117,1466,1284,1263,1476,6345,10528,14894,6345
8117,1460,1224,1276,1468,6345,10528,14894,6345
8117,1464,1240,1192,1475,6345,10528,14894,6345
7751,1460,1194,1263,1474,6345,10528,14894,6345
8117,1467,1235,1211,1474,6345,10528,14894,6345
8117,1466,1231,1267,1474,6345,10528,14894,6345
7751,1466,1198,1262,1477,6345,10528,14894,6345
8117,1466,1263,1262,1470,6345,10528,14894,6345
8117,1463,1204,1248,1482,6345,10528,14894,6345
7751,1463,1258,1258,1475,6345,10528,14894,6345
8117,1463,1192,1227,1468,6345,10528,14894,6345
8117,1462,1210,1263,1483,6345,10528,14894,6345
7751,1463,1202,1226,1483,6345,10528,14894,6345
8117,1466,1272,1227,1470,6345,10528,14894,6345
8117,1461,1199,1262,1470,6345,10528,14894,6345
7751,1466,1268,1224,1477,6345,10528,14894,6345
8117,1465,1191,1256,1474,6345,10528,14894,6345
8117,1472,1226,1256,1468,6345,10528,14894,6345
7751,1468,1221,1212,1481,6345,10528,14894,6345
8117,1465,1190,1243,1473,6345,10528,14894,6345
8117,1466,1217,1245,1464,6345,10528,14894,6345
7751,1469,1219,1169,1481,6345,10528,14894,6345
8117,1460,1232,1251,1476,6345,10528,14894,6345
8117,1458,1223,1168,1470,6345,10528,14894,6345
8117,1458,1222,1253,1477,6345,10528,14894,6345
7751,1461,1186,1225,1469,6345,10528,14894,6345
8117,1464,1224,1250,1468,6345,10528,14894,6345
8117,1462,1192,1240,1476,6345,10528,14894,6345
7751,1468,1266,1221,1472,6345,10528,14894,6345
8117,1466,1188,1244,1471,6345,10528,14894,6345
8117,1461,1225,1252,1479,6345,10528,14894,6345
7751,1460,1189,1210,1475,6345,10528,14894,6345
8117,1462,1209,1244,1469,6345,10528,14894,6345
8117,1468,1223,1253,1478,6345,10528,14894,6345
7751,1462,1262,1216,1478,6345,10528,14894,6345
8117,1460,1182,1261,1471,6345,10528,14894,6345
8117,1467,1229,1188,1466,6345,10528,14894,6345
7751,1461,1191,1264,1476,6345,10528,14894,6345
8117,1466,1202,1273,1475,6345,10528,14894,6345
8117,1466,1231,1264,1469,6345,10528,14894,6345
7751,1462,1197,1266,1481,6345,10528,14894,6345
8117,1463,1265,1273,1475,6345,10528,14894,6345
8117,1465,1235,1193,1469,6345,10528,14894,6345
7751,1461,1200,1273,1483,6345,10528,14894,6345
8117,1471,1200,1239,1473,6345,10528,14894,6345
8117,1461,1236,1276,1470,6345,10528,14894,6345
8117,1469,1219,1278,1482,6345,10528,14894,6345
7751,1464,1277,1249,1475,6345,10528,14894,6345
8117,1463,1209,1280,1472,6345,10528,14894,6345
8117,1460,1242,1222,1474,6345,10528,14894,6345
7751,1468,1205,1278,1478,6345,10528,14894,6345
8117,1468,1207,1284,1470,6345,10528,14894,6345
8117,1460,1242,1277,1478,6345,10528,14894,6345
7751,1463,1277,1273,1479,6345,10528,14894,6345
8117,1464,1273,1281,1472,6345,10528,14894,6345
8117,1469,1240,1202,1480,6345,10528,14894,6345
7751,1469,1202,1273,1475,6345,10528,14894,6345
8117,1464,1203,1234,1476,6345,10528,14894,6345
8117,1467,1238,1264,1474,6345,10528,14894,6345
7751,1470,1195,1264,1480,6345,10528,14894,6345
8117,1463,1261,1228,1473,6345,10528,14894,6345
8117,1463,1205,1262,1466,6345,10528,14894,6345
7751,1466,1233,1270,1478,6345,10528,14894,6345
8117,1464,1196,1229,1471,6345,10528,14894,6345
8117,1467,1205,1270,1471,6345,10528,14894,6345
7751,1466,1229,1267,1481,6345,10528,14894,6345
8117,1460,1269,1226,1474,6345,10528,14894,6345
8117,1465,1217,1259,1473,6345,10528,14894,6345
8117,1461,1224,1188,1475,6345,10528,14894,6345
7751,1466,1192,1256,1469,6345,10528,14894,6345
8117,1464,1231,1208,1467,6345,10528,14894,6345
8117,1465,1225,1258,1482,6345,10528,14894,6345
7751,1459,1191,1254,1477,6345,10528,14894,6345
8117,1466,1256,1253,1473,6345,10528,14894,6345
8117,1461,1219,1240,1478,6345,10528,14894,6345
7751,1466,1248,1257,1476,6345,10528,14894,6345
8117,1465,1187,1222,1473,6345,10528,14894,6345
8117,1467,1203,1269,1485,6345,10528,14894,6345
7843,1463,1185,1257,1477,6345,10528,14870,6345
8117,1474,1223,1234,1469,6345,10528,14870,6345
7751,1465,1225,1214,1483,6345,10528,14870,6345
8117,1467,1251,1235,1474,6345,10528,14870,6345
8117,1465,1221,1152,1471,6345,10528,14870,6345
8117,1464,1197,1233,1477,6345,10528,14870,6345
7751,1469,1184,1194,1476,6345,10528,14870,6345
8117,1466,1219,1226,1470,6345,10528,14870,6345
8117,1466,1179,1224,1478,6345,10528,14870,6345
7751,1466,1257,1193,1475,6345,10528,14870,6345
8117,1466,1179,1217,1470,6345,10528,14870,6345
8117,1470,1210,1225,1478,6345,10528,14870,6345
7751,1465,1179,1191,1480,6345,10528,14870,6345
8117,1462,1187,1223,1474,6345,10528,14870,6345
8117,1461,1218,1228,1484,6345,10528,14870,6345
7751,1459,1256,1192,1475,6345,10528,14870,6345
8117,1466,1179,1237,1472,6345,10528,14870,6345
8117,1469,1226,1160,1470,6345,10528,14870,6345
7751,1467,1183,1231,1475,6345,10528,14870,6345
8117,1459,1187,1217,1472,6345,10528,14870,6345
8117,1469,1224,1242,1468,6345,10528,14870,6345
7751,1468,1190,1236,1475,6345,10528,14870,6345
8117,1465,1264,1210,1475,6345,10528,14870,6345
8117,1465,1228,1219,1474,6345,10528,14870,6345
7751,1469,1219,1243,1488,6345,10528,14870,6345
8117,1468,1177,1195,1473,6345,10528,14870,6345
8117,1464,1224,1232,1466,6345,10528,14870,6345
8117,1467,1219,1230,1480,6345,10528,14870,6345
7751,1466,1250,1189,1479,6345,10528,14870,6345
8117,1467,1183,1228,1471,6345,10528,14870,6345
8117,1461,1223,1152,1481,6345,10528,14870,6345
7751,1469,1179,1233,1474,6345,10528,14870,6345
8117,1463,1182,1233,1469,6345,10528,14870,6345
8117,1459,1217,1232,1481,6345,10528,14870,6345
7751,1463,1197,1225,1477,6345,10528,14870,6345
8117,1460,1251,1231,1470,6345,10528,14870,6345
8117,1462,1215,1152,1481,6345,10528,14870,6345
7751,1466,1176,1226,1481,6345,10528,14870,6345
8117,1459,1175,1187,1475,6345,10528,14870,6345
8117,1469,1212,1229,1469,6345,10528,14870,6345
7751,1466,1173,1207,1479,6345,10528,14870,6345
8117,1466,1248,1187,1470,6345,10528,14870,6345
8117,1465,1179,1219,1466,6345,10528,14870,6345
7751,1466,1212,1200,1481,6345,10528,14870,6345
8117,1469,1174,1211,1477,6345,10528,14870,6345
8117,1465,1210,1230,1467,6345,10528,14870,6345
7751,1464,1207,1226,1484,6345,10528,14870,6345
8117,1466,1252,1217,1476,6345,10528,14870,6345
8117,1469,1209,1223,1468,6345,10528,14870,6345
8117,1464,1211,1153,1476,6345,10528,14870,6345
7751,1466,1173,1224,1474,6345,10528,14870,6345
8117,1466,1209,1151,1470,6345,10528,14870,6345
8117,1467,1212,1221,1475,6345,10528,14870,6345
7751,1467,1171,1216,1475,6345,10528,14870,6345
8117,1465,1243,1223,1466,6345,10528,14870,6345
8117,1465,1181,1211,1477,6345,10528,14870,6345
7751,1464,1241,1221,1478,6345,10528,14870,6345
8117,1459,1172,1183,1473,6345,10528,14870,6345
8117,1463,1181,1219,1486,6345,10528,14870,6345
7751,1471,1171,1184,1478,6345,10528,14870,6345
8117,1465,1246,1187,1470,6345,10528,14870,6345
8117,1466,1175,1223,1469,6345,10528,14870,6345
7751,1464,1254,1191,1482,6345,10528,14870,6345
8117,1467,1173,1219,1476,6345,10528,14870,6345
8117,1467,1212,1183,1469,6345,10528,14870,6345
7751,1469,1211,1209,1483,6345,10528,14870,6345
8117,1468,1183,1222,1474,6345,10528,14870,6345
8117,1468,1208,1232,1465,6345,10528,14870,6345
7751,1476,1213,1216,1480,6345,10528,14870,6345
8117,1466,1242,1233,1473,6345,10528,14870,6345
8117,1466,1216,1163,1467,6345,10528,14870,6345
8117,1458,1225,1242,1477,6345,10528,14870,6345
7751,1462,1182,1208,1470,6345,10528,14870,6345
8117,1465,1223,1244,1468,6345,10528,14870,6345
8117,1468,1185,1244,1481,6345,10528,14870,6345
7751,1460,1252,1207,1476,6345,10528,14870,6345
8117,1463,1176,1233,1474,6345,10528,14870,6345
8117,1461,1219,1241,1476,6345,10528,14870,6345
7751,1464,1178,1208,1474,6345,10528,14870,6345
8117,1465,1193,1244,1473,6345,10528,14870,6345
8117,1467,1223,1247,1479,6345,10528,14870,6345
7751,1467,1260,1213,1475,6345,10528,14870,6345
8117,1465,1188,1255,1474,6345,10528,14870,6345
8117,1464,1232,1183,1463,6345,10528,14870,6345
7751,1466,1193,1256,1478,6345,10528,14870,6345
8117,1463,1193,1238,1476,6345,10528,14870,6345
8117,1466,1229,1262,1470,6345,10528,14870,6345
7751,1469,1195,1253,1475,6345,10528,14870,6345
8117,1462,1263,1225,1474,6345,10528,14870,6345
8117,1467,1225,1223,1469,6345,10528,14870,6345
7751,1469,1224,1249,1483,6345,10528,14870,6345
8117,1468,1185,1216,1481,6345,10528,14870,6345
8117,1469,1226,1250,1474,6345,10528,14870,6345
8117,1468,1225,1244,1476,6345,10528,14870,6345
7751,1461,1258,1207,1475,6345,10528,14870,6345
8117,1464,1193,1244,1468,6345,10528,14870,6345
8117,1469,1224,1172,1480,6345,10528,14870,6345
7751,1466,1190,1245,1480,6345,10528,14870,6345
8117,1467,1184,1242,1473,6345,10528,14870,6345
8117,1466,1222,1242,1480,6345,10528,14870,6345
7751,1459,1205,1237,1478,6345,10528,14870,6345
8117,1463,1257,1243,1470,6345,10528,14870,6345
8117,1464,1220,1160,1480,6345,10528,14870,6345
7751,1466,1183,1236,1481,6345,10528,14870,6345
8117,1468,1184,1197,1470,6345,10528,14870,6345
8117,1464,1216,1235,1469,6345,10528,14870,6345
7751,1460,1189,1236,1475,6345,10528,14870,6345
8117,1467,1250,1202,1474,6345,10528,14870,6345
8117,1464,1184,1231,1468,6345,10528,14870,6345
7751,1466,1215,1217,1479,6345,10528,14870,6345
8117,1467,1177,1220,1472,6345,10528,14870,6345
8117,1467,1206,1235,1469,6345,10528,14870,6345
7751,1465,1214,1236,1479,6345,10528,14870,6345
8117,1464,1248,1222,1473,6345,10528,14870,6345
8117,1461,1210,1242,1472,6345,10528,14870,6345
8117,1466,1206,1152,1477,6345,10528,14870,6345
7751,1471,1175,1233,1477,6345,10528,14870,6345
8117,1463,1214,1165,1466,6345,10528,14870,6345
8117,1471,1215,1236,1477,6345,10528,14870,6345
7751,1460,1179,1233,1472,6345,10528,14870,6345
8117,1466,1252,1231,1470,6345,10528,14870,6345
8117,1469,1190,1225,1483,6345,10528,14870,6345
7751,1463,1243,1233,1482,6345,10528,14870,6345
8117,1464,1174,1196,1472,6345,10528,14870,6345
8117,1463,1178,1237,1484,6345,10528,14870,6345
7843,1465,1174,1226,1471,6345,10546,14880,6345
8117,1458,1231,1229,1470,6345,10546,14880,6345
7751,1468,1205,1225,1481,6345,10546,14880,6345
8117,1465,1270,1235,1475,6345,10546,14880,6345
8117,1461,1238,1149,1465,6345,10546,14880,6345
8117,1466,1210,1236,1479,6345,10546,14880,6345
7751,1466,1198,1191,1475,6345,10546,14880,6345
8117,1462,1240,1233,1474,6345,10546,14880,6345
8117,1462,1205,1234,1475,6345,10546,14880,6345
7751,1457,1281,1197,1474,6345,10546,14880,6345
8117,1467,1210,1237,1471,6345,10546,14880,6345
8117,1469,1237,1196,1477,6345,10546,14880,6345
7751,1466,1202,1211,1476,6345,10546,14880,6345
8117,1467,1206,1231,1472,6345,10546,14880,6345
8117,1461,1240,1237,1480,6345,10546,14880,6345
7751,1466,1274,1219,1476,6345,10546,14880,6345
8117,1468,1260,1234,1467,6345,10546,14880,6345
8117,1463,1240,1158,1469,6345,10546,14880,6345
7751,1457,1203,1235,1478,6345,10546,14880,6345
8117,1463,1202,1203,1473,6345,10546,14880,6345
8117,1462,1241,1236,1466,6345,10546,14880,6345
7751,1469,1209,1237,1474,6345,10546,14880,6345
8117,1462,1274,1206,1470,6345,10546,14880,6345
8117,1469,1215,1233,1467,6345,10546,14880,6345
7751,1469,1239,1235,1484,6345,10546,14880,6345
8117,1462,1201,1197,1478,6345,10546,14880,6345
8117,1465,1213,1240,1470,6345,10546,14880,6345
8117,1469,1239,1234,1478,6345,10546,14880,6345
7751,1463,1275,1196,1473,6345,10546,14880,6345
8117,1466,1203,1244,1468,6345,10546,14880,6345
8117,1466,1245,1161,1482,6345,10546,14880,6345
7751,1466,1204,1234,1478,6345,10546,14880,6345
8117,1466,1237,1233,1471,6345,10546,14880,6345
8117,1468,1236,1233,1482,6345,10546,14880,6345
7751,1469,1208,1233,1473,6345,10546,14880,6345
8117,1467,1277,1219,1469,6345,10546,14880,6345
8117,1464,1241,1202,1483,6345,10546,14880,6345
7751,1470,1255,1240,1480,6345,10546,14880,6345
8117,1465,1199,1194,1471,6345,10546,14880,6345
8117,1462,1240,1235,1465,6345,10546,14880,6345
7751,1470,1199,1198,1477,6345,10546,14880,6345
8117,1468,1279,1191,1471,6345,10546,14880,6345
8117,1466,1197,1223,1472,6345,10546,14880,6345
7751,1461,1228,1189,1478,6345,10546,14880,6345
8117,1462,1190,1217,1477,6345,10546,14880,6345
8117,1466,1225,1219,1473,6345,10546,14880,6345
7751,1464,1230,1223,1482,6345,10546,14880,6345
8117,1465,1211,1227,1472,6345,10546,14880,6345
8117,1468,1236,1224,1469,6345,10546,14880,6345
8117,1467,1231,1152,1476,6345,10546,14880,6345
7751,1463,1199,1226,1471,6345,10546,14880,6345
8117,1466,1236,1157,1473,6345,10546,14880,6345
8117,1469,1234,1228,1476,6345,10546,14880,6345
7751,1468,1199,1227,1476,6345,10546,14880,6345
8117,1465,1276,1226,1469,6345,10546,14880,6345
8117,1459,1202,1224,1476,6345,10546,14880,6345
7751,1466,1270,1238,1476,6345,10546,14880,6345
8117,1464,1202,1219,1469,6345,10546,14880,6345
8117,1469,1233,1240,1477,6345,10546,14880,6345
7751,1463,1204,1209,1481,6345,10546,14880,6345
8117,1467,1279,1228,1470,6345,10546,14880,6345
8117,1466,1236,1248,1469,6345,10546,14880,6345
7751,1468,1276,1208,1482,6345,10546,14880,6345
8117,1464,1201,1246,1475,6345,10546,14880,6345
8117,1470,1245,1177,1468,6345,10546,14880,6345
7751,1469,1239,1237,1482,6345,10546,14880,6345
8117,1464,1200,1244,1476,6345,10546,14880,6345
8117,1467,1243,1248,1473,6345,10546,14880,6345
7751,1463,1216,1244,1485,6345,10546,14880,6345
8117,1466,1277,1246,1474,6345,10546,14880,6345
8117,1466,1247,1172,1468,6345,10546,14880,6345
8117,1466,1215,1251,1479,6345,10546,14880,6345
7751,1468,1212,1216,1481,6345,10546,14880,6345
8117,1467,1249,1253,1470,6345,10546,14880,6345
8117,1466,1216,1251,1479,6345,10546,14880,6345
7751,1466,1284,1212,1473,6345,10546,14880,6345
8117,1464,1207,1239,1469,6345,10546,14880,6345
8117,1462,1244,1244,1477,6345,10546,14880,6345
7751,1469,1201,1209,1478,6345,10546,14880,6345
8117,1464,1208,1245,1475,6345,10546,14880,6345
8117,1460,1242,1236,1480,6345,10546,14880,6345
7751,1473,1278,1224,1479,6345,10546,14880,6345
8117,1466,1260,1238,1476,6345,10546,14880,6345
8117,1468,1242,1159,1468,6345,10546,14880,6345
7751,1465,1206,1239,1482,6345,10546,14880,6345
8117,1467,1204,1213,1472,6345,10546,14880,6345
8117,1466,1244,1245,1472,6345,10546,14880,6345
7751,1466,1210,1242,1474,6345,10546,14880,6345
8117,1468,1288,1211,1473,6345,10546,14880,6345
8117,1466,1226,1239,1467,6345,10546,14880,6345
7751,1467,1243,1244,1481,6345,10546,14880,6345
8117,1465,1205,1198,1478,6345,10546,14880,6345
8117,1469,1215,1237,1471,6345,10546,14880,6345
8117,1469,1238,1235,1477,6345,10546,14880,6345
7751,1461,1277,1189,1476,6345,10546,14880,6345
8117,1466,1198,1225,1470,6345,10546,14880,6345
8117,1466,1231,1153,1482,6345,10546,14880,6345
7751,1466,1198,1218,1477,6345,10546,14880,6345
8117,1462,1187,1216,1469,6345,10546,14880,6345
8117,1464,1227,1221,1483,6345,10546,14880,6345
7751,1467,1196,1210,1474,6345,10546,14880,6345
8117,1463,1260,1220,1473,6345,10546,14880,6345
8117,1460,1225,1138,1482,6345,10546,14880,6345
7751,1466,1237,1216,1481,6345,10546,14880,6345
8117,1465,1193,1181,1470,6345,10546,14880,6345
8117,1465,1229,1223,1471,6345,10546,14880,6345
7751,1459,1198,1199,1476,6345,10546,14880,6345
8117,1466,1262,1188,1474,6345,10546,14880,6345
8117,1460,1200,1221,1464,6345,10546,14880,6345
7751,1462,1235,1194,1478,6345,10546,14880,6345
8117,1464,1194,1217,1471,6345,10546,14880,6345
8117,1460,1230,1223,1467,6345,10546,14880,6345
7751,1465,1228,1226,1480,6345,10546,14880,6345
8117,1462,1212,1217,1473,6345,10546,14880,6345
8117,1454,1223,1220,1466,6345,10546,14880,6345
8117,1469,1229,1138,1476,6345,10546,14880,6345
7751,1464,1193,1221,1472,6345,10546,14880,6345
8117,1466,1232,1152,1469,6345,10546,14880,6345
8117,1466,1233,1233,1472,6345,10546,14880,6345
7751,1466,1202,1230,1478,6345,10546,14880,6345
8117,1465,1271,1232,1473,6345,10546,14880,6345
8117,1471,1205,1223,1479,6345,10546,14880,6345
7751,1469,1271,1223,1476,6345,10546,14880,6345
8117,1463,1197,1190,1474,6345,10546,14880,6345
8117,1467,1202,1226,1483,6345,10546,14880,6345
7843,1466,1195,1224,1476,6345,10546,14880,6345
8117,1464,1234,1225,1472,6345,10546,14880,6345
7751,1469,1200,1217,1484,6345,10546,14880,6345
8117,1466,1268,1227,1475,6345,10546,14880,6345
8117,1461,1239,1145,1467,6345,10546,14880,6345
8117,1464,1224,1228,1478,6345,10546,14880,6345
7751,1465,1204,1191,1473,6345,10546,14880,6345
8117,1465,1240,1233,1474,6345,10546,14880,6345
8117,1467,1230,1233,1480,6345,10546,14880,6345
7751,1469,1283,1199,1478,6345,10546,14880,6345
8117,1463,1207,1232,1468,6345,10546,14880,6345
8117,1465,1243,1165,1481,6345,10546,14880,6345
7751,1469,1202,1223,1478,6345,10546,14880,6345
8117,1470,1204,1227,1472,6345,10546,14880,6345
8117,1464,1235,1230,1475,6345,10546,14880,6345
7751,1469,1227,1224,1480,6345,10546,14880,6345
8117,1463,1262,1224,1471,6345,10546,14880,6345
8117,1466,1239,1146,1483,6345,10546,14880,6345
7751,1467,1194,1227,1477,6345,10546,14880,6345
8117,1465,1199,1191,1470,6345,10546,14880,6345
8117,1466,1237,1222,1465,6345,10546,14880,6345
7751,1463,1198,1223,1477,6345,10546,14880,6345
8117,1469,1268,1189,1473,6345,10546,14880,6345
8117,1460,1201,1218,1468,6345,10546,14880,6345
7751,1474,1232,1224,1479,6345,10546,14880,6345
8117,1465,1196,1181,1473,6345,10546,14880,6345
8117,1466,1198,1220,1473,6345,10546,14880,6345
8117,1462,1232,1219,1475,6345,10546,14880,6345
7751,1467,1272,1186,1471,6345,10546,14880,6345
8117,1468,1220,1219,1472,6345,10546,14880,6345
8117,1467,1238,1146,1481,6345,10546,14880,6345
7751,1462,1197,1219,1474,6345,10546,14880,6345
8117,1463,1232,1162,1474,6345,10546,14880,6345
8117,1467,1230,1219,1481,6345,10546,14880,6345
7751,1463,1198,1206,1477,6345,10546,14880,6345
8117,1469,1265,1212,1471,6345,10546,14880,6345
8117,1460,1228,1198,1479,6345,10546,14880,6345
7751,1466,1257,1209,1477,6345,10546,14880,6345
8117,1467,1191,1172,1472,6345,10546,14880,6345
8117,1473,1209,1216,1469,6345,10546,14880,6345
7751,1470,1191,1179,1478,6345,10546,14880,6345
8117,1467,1264,1181,1476,6345,10546,14880,6345
8117,1466,1203,1227,1467,6345,10546,14880,6345
7751,1466,1280,1191,1481,6345,10546,14880,6345
8117,1460,1204,1229,1474,6345,10546,14880,6345
8117,1469,1241,1233,1470,6345,10546,14880,6345
7751,1462,1239,1190,1481,6345,10546,14880,6345
8117,1465,1212,1232,1471,6345,10546,14880,6345
8117,1462,1235,1229,1472,6345,10546,14880,6345
8117,1458,1242,1154,1474,6345,10546,14880,6345
7751,1465,1205,1232,1475,6345,10546,14880,6345
8117,1466,1241,1152,1470,6345,10546,14880,6345
8117,1454,1245,1241,1475,6345,10546,14880,6345
7751,1466,1206,1218,1479,6345,10546,14880,6345
8117,1464,1245,1236,1469,6345,10546,14880,6345
8117,1466,1211,1239,1481,6345,10546,14880,6345
7751,1463,1286,1214,1479,6345,10546,14880,6345
8117,1466,1212,1228,1471,6345,10546,14880,6345
8117,1470,1247,1246,1476,6345,10546,14880,6345
7751,1462,1208,1207,1471,6345,10546,14880,6345
8117,1464,1245,1246,1471,6345,10546,14880,6345
8117,1469,1253,1251,1471,6345,10546,14880,6345
7751,1459,1295,1217,1478,6345,10546,14880,6345
8117,1462,1218,1246,1475,6345,10546,14880,6345
8117,1470,1259,1175,1468,6345,10546,14880,6345
7751,1462,1224,1242,1482,6345,10546,14880,6345
8117,1468,1222,1248,1476,6345,10546,14880,6345
8117,1463,1255,1242,1470,6345,10546,14880,6345
7751,1461,1226,1240,1481,6345,10546,14880,6345
8117,1463,1288,1242,1471,6345,10546,14880,6345
8117,1461,1255,1167,1473,6345,10546,14880,6345
8117,1465,1217,1243,1480,6345,10546,14880,6345
7751,1466,1215,1203,1477,6345,10546,14880,6345
8117,1463,1253,1244,1471,6345,10546,14880,6345
8117,1468,1240,1238,1478,6345,10546,14880,6345
7751,1460,1291,1202,1475,6345,10546,14880,6345
8117,1465,1220,1243,1470,6345,10546,14880,6345
8117,1465,1252,1192,1479,6345,10546,14880,6345
7751,1466,1215,1231,1476,6345,10546,14880,6345
8117,1466,1212,1235,1473,6345,10546,14880,6345
8117,1466,1248,1243,1480,6345,10546,14880,6345
7751,1460,1284,1229,1478,6345,10546,14880,6345
8117,1462,1277,1231,1470,6345,10546,14880,6345
8117,1462,1245,1149,1466,6345,10546,14880,6345
7751,1469,1197,1222,1480,6345,10546,14880,6345
8117,1465,1205,1187,1475,6345,10546,14880,6345
8117,1464,1234,1215,1467,6345,10546,14880,6345
7751,1458,1201,1221,1475,6345,10546,14880,6345
8117,1462,1279,1185,1472,6345,10546,14880,6345
8117,1469,1212,1219,1464,6345,10546,14880,6345
7751,1461,1235,1230,1477,6345,10546,14880,6345
8117,1464,1206,1189,1473,6345,10546,14880,6345
8117,1462,1209,1233,1472,6345,10546,14880,6345
8117,1466,1241,1232,1475,6345,10546,14880,6345
7751,1466,1278,1193,1474,6345,10546,14880,6345
8117,1466,1205,1224,1474,6345,10546,14880,6345
8117,1460,1238,1151,1479,6345,10546,14880,6345
7751,1466,1199,1226,1477,6345,10546,14880,6345
8117,1465,1240,1177,1473,6345,10546,14880,6345
8117,1460,1237,1228,1480,6345,10546,14880,6345
7751,1464,1209,1220,1476,6345,10546,14880,6345
8117,1462,1269,1196,1469,6345,10546,14880,6345
8117,1467,1238,1208,1482,6345,10546,14880,6345
7751,1461,1272,1228,1482,6345,10546,14880,6345
8117,1468,1201,1187,1473,6345,10546,14880,6345
8117,1463,1222,1237,1469,6345,10546,14880,6345
7751,1466,1205,1195,1478,6345,10546,14880,6345
8117,1460,1282,1194,1474,6345,10546,14880,6345
8117,1463,1210,1232,1472,6345,10546,14880,6345
7751,1469,1282,1194,1480,6345,10546,14880,6345
8117,1467,1205,1228,1476,6345,10546,14880,6345
8117,1461,1239,1226,1469,6345,10546,14880,6345
7751,1463,1237,1225,1482,6345,10546,14880,6345
8117,1461,1213,1218,1473,6345,10546,14880,6345
8117,1467,1235,1219,1471,6345,10546,14880,6345
8117,1469,1240,1146,1476,6345,10546,14880,6345
7720,1466,1269,1222,1477,6345,10546,14880,6345
8117,1465,1202,1151,1470,6345,10546,14880,6345
8117,1468,1242,1232,1480,6345,10546,14880,6345
7751,1460,1204,1195,1474,6345,10546,14880,6345
8117,1464,1281,1198,1469,6345,10546,14880,6345
8117,1466,1208,1228,1470,6345,10546,14880,6345
7751,1466,1286,1192,1476,6345,10546,14880,6345
8117,1468,1208,1227,1472,6345,10546,14880,6345
8117,1469,1242,1228,1467,6345,10546,14880,6345
7843,1464,1201,1191,1472,6345,10537,14894,6345
8117,1467,1241,1250,1474,6345,10537,14894,6345
8117,1461,1207,1246,1480,6345,10537,14894,6345
7720,1462,1278,1214,1474,6345,10537,14894,6345
8117,1466,1204,1248,1473,6345,10537,14894,6345
8117,1460,1246,1205,1484,6345,10537,14894,6345
7751,1469,1216,1238,1484,6345,10537,14894,6345
8117,1462,1216,1251,1476,6345,10537,14894,6345
8117,1462,1245,1257,1474,6345,10537,14894,6345
7751,1468,1293,1248,1479,6345,10537,14894,6345
8117,1466,1274,1258,1472,6345,10537,14894,6345
8117,1469,1249,1180,1473,6345,10537,14894,6345
7751,1467,1229,1251,1481,6345,10537,14894,6345
8117,1467,1214,1216,1478,6345,10537,14894,6345
8117,1461,1245,1249,1469,6345,10537,14894,6345
7751,1471,1209,1252,1482,6345,10537,14894,6345
8117,1469,1288,1220,1474,6345,10537,14894,6345
8117,1460,1218,1246,1468,6345,10537,14894,6345
8117,1463,1246,1246,1476,6345,10537,14894,6345
7751,1464,1212,1208,1478,6345,10537,14894,6345
8117,1462,1218,1253,1469,6345,10537,14894,6345
8117,1461,1244,1246,1476,6345,10537,14894,6345
7720,1464,1284,1240,1481,6345,10537,14894,6345
8117,1464,1279,1250,1474,6345,10537,14894,6345
8117,1466,1249,1175,1470,6345,10537,14894,6345
7751,1466,1211,1249,1479,6345,10537,14894,6345
8117,1464,1207,1215,1472,6345,10537,14894,6345
8117,1473,1250,1247,1469,6345,10537,14894,6345
7751,1469,1217,1250,1480,6345,10537,14894,6345
8117,1468,1284,1216,1473,6345,10537,14894,6345
8117,1469,1224,1246,1471,6345,10537,14894,6345
7751,1471,1249,1255,1480,6345,10537,14894,6345
8117,1462,1216,1220,1473,6345,10537,14894,6345
8117,1464,1226,1257,1478,6345,10537,14894,6345
8117,1461,1255,1262,1479,6345,10537,14894,6345
7751,1462,1295,1218,1480,6345,10537,14894,6345
8117,1461,1220,1255,1472,6345,10537,14894,6345
8117,1469,1253,1183,1481,6345,10537,14894,6345
7751,1463,1215,1257,1474,6345,10537,14894,6345
8117,1468,1217,1219,1476,6345,10537,14894,6345
8117,1463,1253,1261,1482,6345,10537,14894,6345
7751,1469,1218,1262,1478,6345,10537,14894,6345
8117,1465,1290,1241,1474,6345,10537,14894,6345
8117,1465,1255,1241,1479,6345,10537,14894,6345
7720,1462,1290,1271,1481,6345,10537,14894,6345
8117,1464,1230,1227,1478,6345,10537,14894,6345
8117,1468,1229,1268,1474,6345,10537,14894,6345
7751,1460,1265,1273,1479,6345,10537,14894,6345
8117,1467,1301,1229,1478,6345,10537,14894,6345
8117,1466,1231,1276,1476,6345,10537,14894,6345
8117,1467,1266,1195,1477,6345,10537,14894,6345
7751,1467,1226,1266,1477,6345,10537,14894,6345
8117,1467,1260,1226,1470,6345,10537,14894,6345
8117,1467,1258,1265,1477,6345,10537,14894,6345
7751,1461,1219,1257,1476,6345,10537,14894,6345
8117,1463,1256,1256,1477,6345,10537,14894,6345
8117,1467,1254,1226,1477,6345,10537,14894,6345
7751,1461,1271,1252,1473,6345,10537,14894,6345
8117,1467,1215,1216,1472,6345,10537,14894,6345
8117,1461,1255,1255,1479,6345,10537,14894,6345
7751,1469,1220,1218,1472,6345,10537,14894,6345
8117,1465,1301,1213,1475,6345,10537,14894,6345
8117,1467,1219,1248,1464,6345,10537,14894,6345
7720,1466,1255,1214,1479,6345,10537,14894,6345
8117,1467,1211,1246,1468,6345,10537,14894,6345
8117,1468,1251,1211,1470,6345,10537,14894,6345
8117,1471,1251,1248,1478,6345,10537,14894,6345
7751,1459,1216,1245,1476,6345,10537,14894,6345
8117,1461,1246,1245,1474,6345,10537,14894,6345
8117,1468,1243,1221,1479,6345,10537,14894,6345
7751,1467,1276,1243,1473,6345,10537,14894,6345
8117,1465,1250,1168,1467,6345,10537,14894,6345
8117,1466,1249,1247,1479,6345,10537,14894,6345
7751,1466,1213,1206,1475,6345,10537,14894,6345
8117,1467,1284,1244,1473,6345,10537,14894,6345
8117,1469,1212,1239,1481,6345,10537,14894,6345
7751,1469,1284,1207,1477,6345,10537,14894,6345
8117,1466,1203,1231,1472,6345,10537,14894,6345
8117,1466,1246,1240,1473,6345,10537,14894,6345
7751,1469,1206,1200,1477,6345,10537,14894,6345
8117,1470,1226,1235,1474,6345,10537,14894,6345
8117,1466,1244,1244,1467,6345,10537,14894,6345
7720,1467,1244,1219,1486,6345,10537,14894,6345
8117,1471,1272,1242,1476,6345,10537,14894,6345
8117,1463,1242,1159,1471,6345,10537,14894,6345
8117,1466,1244,1237,1477,6345,10537,14894,6345
7751,1464,1204,1200,1474,6345,10537,14894,6345
8117,1463,1241,1235,1470,6345,10537,14894,6345
8117,1458,1204,1231,1477,6345,10537,14894,6345
7751,1463,1277,1202,1468,6345,10537,14894,6345
8117,1463,1204,1223,1468,6345,10537,14894,6345
8117,1468,1241,1235,1480,6345,10537,14894,6345
7751,1470,1207,1197,1480,6345,10537,14894,6345
8117,1466,1223,1231,1474,6345,10537,14894,6345
8117,1461,1242,1232,1481,6345,10537,14894,6345
7751,1460,1282,1196,1475,6345,10537,14894,6345
8117,1464,1202,1230,1470,6345,10537,14894,6345
8117,1463,1237,1162,1467,6345,10537,14894,6345
7751,1471,1200,1227,1478,6345,10537,14894,6345
8117,1468,1208,1230,1475,6345,10537,14894,6345
8117,1466,1236,1230,1473,6345,10537,14894,6345
7751,1459,1206,1232,1489,6345,10537,14894,6345
8117,1465,1278,1210,1476,6345,10537,14894,6345
8117,1468,1244,1204,1474,6345,10537,14894,6345
8087,1461,1243,1238,1479,6345,10537,14894,6345
7751,1464,1204,1202,1478,6345,10537,14894,6345
8117,1463,1223,1236,1470,6345,10537,14894,6345
8117,1462,1242,1233,1482,6345,10537,14894,6345
7751,1460,1278,1197,1472,6345,10537,14894,6345
8117,1467,1207,1238,1471,6345,10537,14894,6345
8117,1464,1240,1164,1481,6345,10537,14894,6345
7751,1466,1203,1226,1480,6345,10537,14894,6345
8117,1462,1207,1233,1474,6345,10537,14894,6345
8117,1461,1239,1234,1469,6345,10537,14894,6345
7751,1465,1206,1229,1484,6345,10537,14894,6345
8117,1464,1278,1209,1474,6345,10537,14894,6345
8117,1466,1243,1206,1469,6345,10537,14894,6345
7751,1470,1234,1233,1484,6345,10537,14894,6345
8117,1468,1212,1200,1472,6345,10537,14894,6345
8117,1465,1246,1241,1467,6345,10537,14894,6345
7751,1466,1239,1241,1481,6345,10537,14894,6345
8117,1462,1286,1195,1472,6345,10537,14894,6345
8117,1469,1210,1234,1471,6345,10537,14894,6345
8087,1461,1247,1157,1479,6345,10537,14894,6345
7751,1469,1213,1238,1478,6345,10537,14894,6345
8117,1465,1208,1243,1470,6345,10537,14894,6345
7843,1466,1214,1203,1476,6345,10532,14894,6345
8117,1463,1261,1199,1473,6345,10532,14894,6345
8117,1458,1191,1238,1469,6345,10532,14894,6345
7751,1464,1225,1167,1486,6345,10532,14894,6345
8117,1465,1187,1241,1480,6345,10532,14894,6345
8117,1471,1226,1241,1468,6345,10532,14894,6345
8117,1469,1227,1245,1477,6345,10532,14894,6345
7751,1461,1193,1244,1479,6345,10532,14894,6345
8117,1466,1225,1242,1473,6345,10532,14894,6345
8087,1462,1199,1230,1481,6345,10532,14894,6345
7751,1466,1262,1241,1476,6345,10532,14894,6345
8117,1465,1186,1202,1468,6345,10532,14894,6345
8117,1465,1197,1236,1466,6345,10532,14894,6345
7751,1466,1198,1203,1484,6345,10532,14894,6345
8117,1467,1274,1209,1473,6345,10532,14894,6345
8117,1468,1195,1236,1470,6345,10532,14894,6345
7751,1464,1272,1213,1479,6345,10532,14894,6345
8117,1468,1195,1244,1477,6345,10532,14894,6345
8117,1467,1234,1247,1470,6345,10532,14894,6345
7751,1464,1236,1210,1483,6345,10532,14894,6345
8117,1467,1206,1247,1475,6345,10532,14894,6345
8117,1461,1238,1248,1471,6345,10532,14894,6345
8117,1466,1233,1219,1474,6345,10532,14894,6345
7751,1467,1258,1251,1473,6345,10532,14894,6345
8117,1469,1240,1175,1474,6345,10532,14894,6345
8117,1465,1237,1258,1478,6345,10532,14894,6345
7751,1463,1198,1222,1477,6345,10532,14894,6345
8117,1464,1237,1253,1471,6345,10532,14894,6345
8117,1466,1202,1249,1477,6345,10532,14894,6345
7751,1465,1281,1224,1474,6345,10532,14894,6345
8117,1465,1203,1247,1471,6345,10532,14894,6345
8087,1462,1240,1264,1469,6345,10532,14894,6345
7751,1467,1206,1224,1475,6345,10532,14894,6345
8117,1465,1218,1261,1474,6345,10532,14894,6345
8117,1466,1240,1265,1469,6345,10532,14894,6345
7751,1466,1248,1242,1483,6345,10532,14894,6345
8117,1467,1261,1261,1473,6345,10532,14894,6345
8117,1469,1251,1188,1472,6345,10532,14894,6345
7751,1468,1251,1262,1489,6345,10532,14894,6345
8117,1466,1214,1234,1476,6345,10532,14894,6345
8117,1467,1253,1258,1471,6345,10532,14894,6345
8117,1464,1212,1256,1480,6345,10532,14894,6345
7751,1467,1288,1226,1477,6345,10532,14894,6345
8117,1466,1229,1243,1475,6345,10532,14894,6345
8117,1466,1251,1254,1480,6345,10532,14894,6345
7751,1461,1217,1219,1477,6345,10532,14894,6345
8117,1465,1234,1250,1471,6345,10532,14894,6345
8117,1465,1244,1254,1480,6345,10532,14894,6345
7751,1469,1289,1220,1476,6345,10532,14894,6345
8117,1463,1208,1256,1470,6345,10532,14894,6345
8087,1461,1249,1184,1472,6345,10532,14894,6345
7751,1460,1246,1257,1482,6345,10532,14894,6345
8117,1462,1208,1231,1473,6345,10532,14894,6345
8117,1465,1249,1255,1468,6345,10532,14894,6345
7751,1461,1213,1249,1481,6345,10532,14894,6345
8117,1466,1284,1224,1470,6345,10532,14894,6345
8117,1465,1221,1236,1469,6345,10532,14894,6345
8117,1470,1242,1253,1475,6345,10532,14894,6345
7751,1462,1207,1211,1477,6345,10532,14894,6345
8117,1465,1218,1251,1474,6345,10532,14894,6345
8117,1465,1235,1247,1479,6345,10532,14894,6345
7751,1471,1277,1204,1476,6345,10532,14894,6345
8117,1462,1201,1242,1473,6345,10532,14894,6345
8117,1471,1239,1175,1480,6345,10532,14894,6345
7751,1462,1198,1246,1478,6345,10532,14894,6345
8117,1466,1205,1245,1473,6345,10532,14894,6345
8117,1461,1235,1242,1480,6345,10532,14894,6345
7751,1466,1208,1243,1480,6345,10532,14894,6345
8117,1464,1263,1246,1474,6345,10532,14894,6345
8087,1464,1213,1235,1469,6345,10532,14894,6345
7751,1458,1230,1244,1484,6345,10532,14894,6345
8117,1465,1195,1198,1475,6345,10532,14894,6345
8117,1459,1204,1236,1469,6345,10532,14894,6345
8117,1460,1227,1242,1478,6345,10532,14894,6345
7751,1471,1272,1202,1472,6345,10532,14894,6345
8117,1465,1198,1241,1472,6345,10532,14894,6345
8117,1466,1234,1165,1480,6345,10532,14894,6345
7751,1467,1198,1237,1480,6345,10532,14894,6345
8117,1464,1195,1237,1472,6345,10532,14894,6345
8117,1468,1238,1233,1484,6345,10532,14894,6345
7751,1467,1207,1239,1474,6345,10532,14894,6345
8117,1465,1269,1240,1474,6345,10532,14894,6345
8117,1466,1234,1159,1480,6345,10532,14894,6345
7751,1461,1249,1241,1477,6345,10532,14894,6345
8117,1468,1202,1204,1473,6345,10532,14894,6345
8117,1467,1237,1242,1472,6345,10532,14894,6345
7751,1464,1204,1215,1478,6345,10532,14894,6345
8117,1467,1274,1208,1475,6345,10532,14894,6345
8087,1469,1205,1242,1472,6345,10532,14894,6345
8117,1469,1237,1168,1480,6345,10532,14894,6345
7751,1462,1201,1240,1476,6345,10532,14894,6345
8117,1466,1235,1244,1473,6345,10532,14894,6345
8117,1469,1241,1248,1478,6345,10532,14894,6345
7751,1467,1216,1235,1477,6345,10532,14894,6345
8117,1465,1272,1248,1470,6345,10532,14894,6345
8117,1469,1239,1166,1481,6345,10532,14894,6345
7751,1469,1246,1245,1478,6345,10532,14894,6345
8117,1465,1199,1209,1470,6345,10532,14894,6345
8117,1469,1240,1243,1478,6345,10532,14894,6345
7751,1467,1204,1217,1483,6345,10532,14894,6345
8117,1469,1270,1211,1473,6345,10532,14894,6345
8117,1467,1204,1245,1472,6345,10532,14894,6345
7751,1469,1271,1210,1481,6345,10532,14894,6345
8117,1469,1204,1234,1478,6345,10532,14894,6345
8117,1466,1236,1245,1469,6345,10532,14894,6345
7751,1464,1239,1197,1484,6345,10532,14894,6345
8117,1464,1230,1240,1479,6345,10532,14894,6345
8117,1464,1231,1241,1470,6345,10532,14894,6345
7751,1458,1236,1162,1484,6345,10532,14894,6345
8117,1471,1204,1242,1471,6345,10532,14894,6345
8087,1460,1196,1171,1472,6345,10532,14894,6345
8117,1466,1239,1243,1480,6345,10532,14894,6345
7751,1463,1203,1217,1477,6345,10532,14894,6345
8117,1468,1271,1201,1470,6345,10532,14894,6345
8117,1461,1203,1241,1481,6345,10532,14894,6345
7751,1464,1279,1212,1473,6345,10532,14894,6345
8117,1471,1194,1237,1476,6345,10532,14894,6345
8117,1467,1229,1241,1469,6345,10532,14894,6345
7751,1466,1202,1198,1481,6345,10532,14894,6345
8117,1459,1230,1234,1472,6345,10532,14894,6345
8117,1469,1231,1236,1469,6345,10532,14894,6345
7751,1464,1242,1198,1479,6345,10532,14894,6345
8117,1471,1197,1236,1473,6345,10532,14894,6345
8117,1465,1236,1161,1468,6345,10532,14894,6345
7751,1464,1231,1235,1479,6345,10532,14894,6345
8117,1466,1201,1233,1475,6345,10532,14894,6345
8209,1469,1227,1228,1478,6345,10537,14889,6345
7751,1466,1297,1196,1476,6345,10537,14889,6345
8117,1467,1222,1233,1471,6345,10537,14889,6345
8117,1462,1264,1169,1480,6345,10537,14889,6345
7751,1466,1225,1235,1474,6345,10537,14889,6345
8117,1463,1226,1239,1472,6345,10537,14889,6345
8117,1466,1263,1240,1485,6345,10537,14889,6345
7751,1467,1234,1243,1484,6345,10537,14889,6345
8117,1465,1295,1241,1472,6345,10537,14889,6345
8117,1470,1269,1174,1472,6345,10537,14889,6345
7751,1466,1231,1248,1481,6345,10537,14889,6345
8117,1464,1230,1214,1473,6345,10537,14889,6345
8117,1464,1274,1261,1471,6345,10537,14889,6345
7751,1462,1261,1234,1481,6345,10537,14889,6345
8117,1465,1311,1225,1475,6345,10537,14889,6345
8117,1465,1241,1258,1469,6345,10537,14889,6345
7751,1469,1273,1213,1483,6345,10537,14889,6345
8117,1466,1235,1249,1475,6345,10537,14889,6345
8117,1466,1269,1263,1469,6345,10537,14889,6345
8117,1464,1270,1266,1479,6345,10537,14889,6345
7751,1466,1312,1252,1474,6345,10537,14889,6345
8117,1463,1270,1262,1467,6345,10537,14889,6345
8117,1469,1275,1183,1477,6345,10537,14889,6345
7751,1471,1241,1265,1477,6345,10537,14889,6345
8087,1465,1246,1233,1475,6345,10537,14889,6345
8117,1470,1283,1269,1466,6345,10537,14889,6345
7751,1465,1246,1249,1479,6345,10537,14889,6345
8117,1464,1324,1231,1473,6345,10537,14889,6345
8117,1464,1252,1267,1465,6345,10537,14889,6345
7751,1464,1279,1239,1480,6345,10537,14889,6345
8117,1465,1249,1253,1470,6345,10537,14889,6345
8117,1466,1277,1252,1470,6345,10537,14889,6345
7751,1468,1276,1250,1483,6345,10537,14889,6345
8117,1468,1311,1247,1473,6345,10537,14889,6345
8117,1466,1269,1251,1473,6345,10537,14889,6345
8117,1471,1277,1175,1477,6345,10537,14889,6345
7751,1461,1235,1250,1473,6345,10537,14889,6345
8117,1468,1277,1190,1469,6345,10537,14889,6345
8117,1464,1281,1259,1483,6345,10537,14889,6345
7751,1470,1248,1260,1477,6345,10537,14889,6345
8117,1465,1318,1256,1474,6345,10537,14889,6345
8117,1467,1246,1255,1481,6345,10537,14889,6345
7751,1464,1308,1262,1481,6345,10537,14889,6345
8087,1466,1241,1246,1475,6345,10537,14889,6345
8117,1467,1272,1255,1469,6345,10537,14889,6345
7751,1467,1272,1211,1481,6345,10537,14889,6345
8117,1468,1305,1240,1473,6345,10537,14889,6345
8117,1463,1263,1241,1471,6345,10537,14889,6345
7751,1467,1263,1164,1482,6345,10537,14889,6345
8117,1463,1228,1238,1471,6345,10537,14889,6345
8117,1466,1266,1177,1471,6345,10537,14889,6345
8117,1469,1273,1248,1479,6345,10537,14889,6345
7751,1470,1236,1247,1478,6345,10537,14889,6345
8117,1463,1277,1253,1471,6345,10537,14889,6345
8117,1466,1237,1250,1479,6345,10537,14889,6345
7751,1466,1303,1251,1477,6345,10537,14889,6345
8117,1468,1233,1177,1473,6345,10537,14889,6345
8117,1466,1240,1248,1480,6345,10537,14889,6345
7751,1464,1233,1211,1476,6345,10537,14889,6345
8117,1468,1303,1204,1472,6345,10537,14889,6345
8117,1469,1252,1241,1478,6345,10537,14889,6345
7751,1466,1306,1204,1480,6345,10537,14889,6345
8087,1465,1231,1245,1477,6345,10537,14889,6345
8117,1467,1269,1177,1472,6345,10537,14889,6345
7751,1469,1266,1248,1482,6345,10537,14889,6345
8117,1466,1228,1249,1472,6345,10537,14889,6345
8117,1467,1267,1249,1466,6345,10537,14889,6345
8117,1466,1241,1244,1475,6345,10537,14889,6345
7751,1459,1306,1247,1479,6345,10537,14889,6345
8117,1467,1276,1169,1471,6345,10537,14889,6345
8117,1463,1240,1249,1477,6345,10537,14889,6345
7751,1463,1232,1208,1479,6345,10537,14889,6345
8117,1467,1304,1241,1475,6345,10537,14889,6345
8117,1465,1252,1242,1480,6345,10537,14889,6345
7751,1464,1307,1209,1476,6345,10537,14889,6345
8117,1462,1229,1244,1474,6345,10537,14889,6345
8117,1464,1271,1194,1482,6345,10537,14889,6345
7751,1465,1229,1237,1474,6345,10537,14889,6345
8117,1468,1245,1245,1476,6345,10537,14889,6345
8117,1471,1271,1254,1467,6345,10537,14889,6345
7751,1470,1306,1240,1478,6345,10537,14889,6345
8087,1464,1306,1249,1474,6345,10537,14889,6345
8117,1467,1273,1178,1467,6345,10537,14889,6345
8117,1458,1240,1242,1480,6345,10537,14889,6345
7751,1459,1248,1208,1473,6345,10537,14889,6345
8117,1463,1275,1247,1470,6345,10537,14889,6345
8117,1469,1257,1248,1479,6345,10537,14889,6345
7751,1467,1311,1213,1476,6345,10537,14889,6345
8117,1466,1241,1243,1467,6345,10537,14889,6345
8117,1464,1275,1197,1476,6345,10537,14889,6345
7751,1469,1235,1235,1472,6345,10537,14889,6345
8117,1467,1244,1248,1469,6345,10537,14889,6345
8117,1470,1273,1250,1480,6345,10537,14889,6345
7751,1460,1309,1239,1475,6345,10537,14889,6345
8117,1465,1300,1247,1473,6345,10537,14889,6345
8117,1468,1271,1172,1471,6345,10537,14889,6345
7751,1464,1233,1246,1480,6345,10537,14889,6345
8117,1462,1233,1210,1473,6345,10537,14889,6345
8117,1464,1272,1246,1466,6345,10537,14889,6345
7751,1468,1234,1240,1481,6345,10537,14889,6345
8117,1465,1307,1209,1473,6345,10537,14889,6345
8117,1467,1242,1238,1469,6345,10537,14889,6345
7751,1460,1268,1236,1484,6345,10537,14889,6345
8087,1469,1231,1227,1476,6345,10537,14889,6345
8117,1463,1229,1243,1472,6345,10537,14889,6345
8117,1468,1267,1238,1481,6345,10537,14889,6345
7751,1470,1306,1232,1478,6345,10537,14889,6345
8117,1464,1297,1244,1475,6345,10537,14889,6345
8117,1466,1276,1169,1480,6345,10537,14889,6345
7751,1462,1231,1245,1479,6345,10537,14889,6345
8117,1463,1233,1213,1471,6345,10537,14889,6345
8117,1469,1271,1246,1471,6345,10537,14889,6345
7751,1461,1237,1242,1475,6345,10537,14889,6345
8117,1462,1311,1204,1470,6345,10537,14889,6345
8117,1466,1242,1233,1470,6345,10537,14889,6345
7751,1464,1264,1238,1481,6345,10537,14889,6345
8117,1466,1228,1200,1475,6345,10537,14889,6345
8117,1466,1234,1244,1473,6345,10537,14889,6345
7751,1462,1265,1235,1483,6345,10537,14889,6345
8117,1465,1304,1198,1476,6345,10537,14889,6345
8117,1469,1232,1236,1472,6345,10537,14889,6345
8117,1466,1269,1168,1474,6345,10537,14889,6345
7751,1465,1233,1244,1475,6345,10537,14889,6345
8117,1465,1275,1201,1470,6345,10537,14889,6345
8117,1468,1275,1250,1479,6345,10537,14889,6345
7843,1463,1316,1214,1473,6345,10499,14884,6345
8117,1466,1192,1255,1480,6345,10499,14884,6345
7751,1469,1267,1217,1480,6345,10499,14884,6345
8117,1467,1196,1254,1474,6345,10499,14884,6345
8117,1465,1229,1216,1471,6345,10499,14884,6345
7751,1465,1197,1236,1479,6345,10499,14884,6345
8117,1465,1198,1255,1476,6345,10499,14884,6345
8117,1464,1235,1262,1471,6345,10499,14884,6345
7751,1465,1233,1250,1484,6345,10499,14884,6345
8117,1466,1260,1264,1475,6345,10499,14884,6345
8117,1461,1236,1180,1470,6345,10499,14884,6345
7751,1457,1235,1261,1485,6345,10499,14884,6345
8117,1463,1205,1234,1476,6345,10499,14884,6345
8117,1460,1238,1264,1469,6345,10499,14884,6345
8117,1463,1209,1270,1480,6345,10499,14884,6345
7751,1471,1278,1236,1476,6345,10499,14884,6345
8117,1463,1218,1263,1475,6345,10499,14884,6345
8117,1464,1243,1274,1480,6345,10499,14884,6345
7751,1464,1216,1241,1477,6345,10499,14884,6345
8117,1465,1221,1277,1468,6345,10499,14884,6345
8117,1466,1249,1278,1479,6345,10499,14884,6345
7751,1463,1291,1236,1478,6345,10499,14884,6345
8117,1464,1208,1276,1472,6345,10499,14884,6345
8117,1464,1249,1203,1480,6345,10499,14884,6345
7751,1466,1212,1266,1479,6345,10499,14884,6345
8117,1466,1212,1248,1469,6345,10499,14884,6345
8117,1465,1244,1274,1466,6345,10499,14884,6345
7751,1469,1219,1264,1481,6345,10499,14884,6345
8117,1469,1276,1242,1478,6345,10499,14884,6345
8117,1467,1247,1241,1471,6345,10499,14884,6345
7751,1467,1248,1267,1483,6345,10499,14884,6345
8117,1465,1219,1235,1472,6345,10499,14884,6345
8117,1469,1252,1276,1471,6345,10499,14884,6345
7751,1460,1246,1277,1483,6345,10499,14884,6345
8117,1466,1290,1236,1475,6345,10499,14884,6345
8117,1461,1223,1272,1471,6345,10499,14884,6345
8117,1464,1246,1204,1474,6345,10499,14884,6345
7751,1466,1208,1267,1473,6345,10499,14884,6345
8117,1463,1252,1270,1469,6345,10499,14884,6345
8117,1463,1246,1270,1477,6345,10499,14884,6345
7751,1467,1223,1262,1479,6345,10499,14884,6345
8117,1465,1281,1270,1472,6345,10499,14884,6345
8117,1468,1243,1185,1484,6345,10499,14884,6345
7751,1467,1205,1268,1479,6345,10499,14884,6345
8117,1466,1200,1224,1474,6345,10499,14884,6345
8117,1469,1242,1266,1484,6345,10499,14884,6345
7751,1463,1204,1264,1478,6345,10499,14884,6345
8117,1466,1283,1231,1471,6345,10499,14884,6345
8117,1471,1209,1262,1469,6345,10499,14884,6345
7751,1464,1283,1244,1478,6345,10499,14884,6345
8117,1470,1204,1257,1472,6345,10499,14884,6345
8117,1466,1240,1271,1473,6345,10499,14884,6345
7751,1461,1246,1232,1479,6345,10499,14884,6345
8117,1468,1286,1257,1474,6345,10499,14884,6345
8117,1467,1235,1280,1470,6345,10499,14884,6345
8117,1470,1241,1191,1479,6345,10499,14884,6345
7751,1473,1210,1262,1473,6345,10499,14884,6345
8117,1465,1243,1200,1469,6345,10499,14884,6345
8117,1470,1243,1262,1480,6345,10499,14884,6345
7751,1466,1206,1261,1473,6345,10499,14884,6345
8117,1465,1241,1261,1469,6345,10499,14884,6345
8117,1469,1217,1255,1482,6345,10499,14884,6345
7751,1462,1281,1265,1472,6345,10499,14884,6345
8117,1466,1211,1190,1471,6345,10499,14884,6345
8117,1460,1217,1265,1478,6345,10499,14884,6345
7751,1466,1208,1237,1477,6345,10499,14884,6345
8117,1465,1286,1230,1471,6345,10499,14884,6345
8117,1469,1218,1273,1481,6345,10499,14884,6345
7751,1463,1287,1232,1476,6345,10499,14884,6345
8117,1465,1214,1267,1474,6345,10499,14884,6345
8117,1469,1250,1272,1467,6345,10499,14884,6345
7751,1460,1208,1253,1477,6345,10499,14884,6345
8117,1464,1219,1266,1474,6345,10499,14884,6345
8117,1464,1248,1272,1471,6345,10499,14884,6345
7751,1464,1249,1256,1485,6345,10499,14884,6345
8117,1466,1273,1273,1477,6345,10499,14884,6345
8117,1464,1255,1200,1470,6345,10499,14884,6345
8117,1466,1257,1277,1478,6345,10499,14884,6345
7751,1469,1220,1245,1473,6345,10499,14884,6345
8117,1467,1258,1276,1472,6345,10499,14884,6345
8117,1461,1219,1273,1479,6345,10499,14884,6345
7751,1462,1287,1241,1479,6345,10499,14884,6345
8117,1463,1233,1263,1473,6345,10499,14884,6345
8117,1471,1250,1272,1479,6345,10499,14884,6345
7751,1467,1215,1235,1480,6345,10499,14884,6345
8117,1469,1233,1274,1472,6345,10499,14884,6345
8117,1464,1250,1277,1480,6345,10499,14884,6345
7751,1469,1291,1233,1478,6345,10499,14884,6345
8117,1465,1217,1275,1474,6345,10499,14884,6345
8117,1463,1254,1198,1471,6345,10499,14884,6345
7751,1473,1218,1274,1478,6345,10499,14884,6345
8117,1470,1221,1278,1470,6345,10499,14884,6345
8117,1462,1257,1283,1467,6345,10499,14884,6345
7751,1473,1233,1277,1478,6345,10499,14884,6345
8117,1468,1291,1255,1474,6345,10499,14884,6345
8117,1467,1257,1241,1468,6345,10499,14884,6345
7751,1472,1246,1276,1483,6345,10499,14884,6345
8117,1468,1219,1239,1476,6345,10499,14884,6345
8117,1469,1260,1275,1471,6345,10499,14884,6345
8117,1467,1248,1272,1476,6345,10499,14884,6345
7751,1470,1294,1232,1474,6345,10499,14884,6345
8117,1461,1221,1264,1469,6345,10499,14884,6345
8117,1466,1255,1207,1475,6345,10499,14884,6345
7751,1465,1217,1267,1475,6345,10499,14884,6345
8117,1468,1259,1270,1468,6345,10499,14884,6345
8117,1464,1257,1277,1480,6345,10499,14884,6345
7751,1462,1243,1269,1480,6345,10499,14884,6345
8117,1464,1295,1277,1474,6345,10499,14884,6345
8117,1466,1257,1197,1481,6345,10499,14884,6345
7751,1466,1226,1269,1481,6345,10499,14884,6345
8117,1465,1225,1234,1473,6345,10499,14884,6345
8117,1469,1261,1272,1465,6345,10499,14884,6345
7751,1469,1220,1272,1480,6345,10499,14884,6345
8117,1468,1302,1234,1472,6345,10499,14884,6345
8117,1458,1229,1274,1465,6345,10499,14884,6345
7751,1461,1298,1278,1477,6345,10499,14884,6345
8117,1466,1226,1258,1475,6345,10499,14884,6345
8117,1468,1255,1281,1472,6345,10499,14884,6345
7751,1466,1268,1250,1480,6345,10499,14884,6345
8117,1461,1303,1274,1474,6345,10499,14884,6345
8117,1469,1262,1284,1470,6345,10499,14884,6345
8117,1462,1268,1212,1477,6345,10499,14884,6345
7751,1466,1235,1287,1475,6345,10499,14884,6345
8117,1466,1264,1220,1472,6345,10499,14884,6345
8117,1464,1267,1285,1477,6345,10499,14884,6345
7843,1463,1302,1265,1471,6345,10485,14856,6345
8117,1460,1230,1237,1480,6345,10485,14856,6345
7751,1460,1275,1199,1476,6345,10485,14856,6345
8117,1462,1206,1235,1471,6345,10485,14856,6345
8117,1461,1238,1174,1465,6345,10485,14856,6345
7751,1467,1204,1236,1479,6345,10485,14856,6345
8117,1465,1207,1241,1474,6345,10485,14856,6345
8117,1460,1244,1242,1471,6345,10485,14856,6345
7751,1460,1219,1242,1481,6345,10485,14856,6345
8117,1463,1293,1249,1473,6345,10485,14856,6345
8117,1468,1254,1174,1465,6345,10485,14856,6345
7751,1467,1223,1248,1481,6345,10485,14856,6345
8117,1467,1223,1211,1473,6345,10485,14856,6345
8117,1459,1254,1248,1470,6345,10485,14856,6345
8117,1461,1219,1245,1477,6345,10485,14856,6345
7751,1468,1291,1210,1471,6345,10485,14856,6345
8117,1463,1217,1244,1474,6345,10485,14856,6345
8117,1464,1250,1240,1477,6345,10485,14856,6345
7751,1465,1215,1202,1475,6345,10485,14856,6345
8117,1465,1219,1241,1474,6345,10485,14856,6345
8117,1460,1248,1234,1479,6345,10485,14856,6345
7751,1461,1280,1222,1474,6345,10485,14856,6345
8117,1469,1259,1240,1470,6345,10485,14856,6345
8117,1464,1246,1167,1484,6345,10485,14856,6345
7751,1458,1213,1239,1480,6345,10485,14856,6345
8117,1463,1206,1208,1468,6345,10485,14856,6345
8117,1466,1248,1242,1467,6345,10485,14856,6345
7751,1463,1217,1234,1481,6345,10485,14856,6345
8117,1470,1281,1199,1469,6345,10485,14856,6345
8117,1458,1218,1221,1468,6345,10485,14856,6345
7751,1464,1238,1228,1480,6345,10485,14856,6345
8117,1466,1202,1191,1473,6345,10485,14856,6345
8117,1465,1214,1223,1473,6345,10485,14856,6345
7751,1469,1239,1223,1482,6345,10485,14856,6345
8117,1464,1279,1189,1476,6345,10485,14856,6345
8117,1460,1204,1225,1471,6345,10485,14856,6345
8117,1464,1247,1154,1478,6345,10485,14856,6345
7751,1470,1207,1224,1472,6345,10485,14856,6345
8117,1462,1248,1238,1470,6345,10485,14856,6345
8117,1466,1243,1239,1479,6345,10485,14856,6345
7751,1466,1215,1234,1475,6345,10485,14856,6345
8117,1465,1277,1233,1471,6345,10485,14856,6345
8117,1471,1245,1210,1480,6345,10485,14856,6345
7751,1466,1263,1244,1482,6345,10485,14856,6345
8117,1466,1212,1206,1473,6345,10485,14856,6345
8117,1466,1250,1246,1484,6345,10485,14856,6345
7751,1469,1214,1215,1476,6345,10485,14856,6345
8117,1467,1297,1208,1476,6345,10485,14856,6345
8117,1462,1217,1244,1470,6345,10485,14856,6345
7751,1460,1292,1210,1482,6345,10485,14856,6345
8117,1469,1215,1235,1475,6345,10485,14856,6345
8117,1464,1251,1240,1474,6345,10485,14856,6345
7751,1463,1251,1199,1482,6345,10485,14856,6345
8117,1467,1233,1233,1475,6345,10485,14856,6345
8117,1464,1254,1241,1467,6345,10485,14856,6345
7751,1471,1254,1168,1484,6345,10485,14856,6345
8117,1467,1222,1247,1474,6345,10485,14856,6345
8117,1466,1262,1178,1470,6345,10485,14856,6345
8117,1467,1257,1251,1476,6345,10485,14856,6345
7751,1466,1228,1250,1479,6345,10485,14856,6345
8117,1463,1261,1248,1468,6345,10485,14856,6345
8117,1469,1227,1236,1481,6345,10485,14856,6345
7751,1466,1304,1251,1474,6345,10485,14856,6345
8117,1462,1220,1174,1473,6345,10485,14856,6345
8117,1469,1248,1251,1480,6345,10485,14856,6345
7751,1460,1223,1213,1480,6345,10485,14856,6345
8117,1467,1299,1231,1472,6345,10485,14856,6345
8117,1462,1248,1242,1479,6345,10485,14856,6345
7751,1463,1299,1212,1475,6345,10485,14856,6345
8117,1462,1221,1253,1472,6345,10485,14856,6345
8117,1466,1264,1191,1473,6345,10485,14856,6345
7751,1466,1226,1246,1475,6345,10485,14856,6345
8117,1468,1232,1251,1474,6345,10485,14856,6345
8117,1467,1262,1249,1471,6345,10485,14856,6345
7751,1465,1238,1250,1476,6345,10485,14856,6345
8117,1462,1297,1251,1477,6345,10485,14856,6345
8117,1466,1257,1174,1472,6345,10485,14856,6345
7751,1463,1227,1248,1485,6345,10485,14856,6345
8117,1467,1221,1211,1479,6345,10485,14856,6345
8117,1466,1259,1242,1468,6345,10485,14856,6345
8117,1464,1213,1246,1475,6345,10485,14856,6345
7751,1461,1294,1204,1473,6345,10485,14856,6345
8117,1464,1225,1240,1469,6345,10485,14856,6345
8117,1466,1256,1241,1476,6345,10485,14856,6345
7751,1469,1219,1204,1478,6345,10485,14856,6345
8117,1463,1228,1243,1473,6345,10485,14856,6345
8117,1461,1252,1244,1481,6345,10485,14856,6345
7751,1466,1291,1198,1473,6345,10485,14856,6345
8117,1466,1263,1241,1473,6345,10485,14856,6345
8117,1466,1254,1164,1480,6345,10485,14856,6345
7751,1465,1217,1236,1478,6345,10485,14856,6345
8117,1463,1216,1209,1476,6345,10485,14856,6345
8117,1466,1253,1235,1473,6345,10485,14856,6345
7751,1466,1230,1235,1477,6345,10485,14856,6345
8117,1462,1282,1206,1475,6345,10485,14856,6345
8117,1466,1230,1230,1471,6345,10485,14856,6345
7751,1466,1249,1235,1478,6345,10485,14856,6345
8117,1470,1215,1201,1474,6345,10485,14856,6345
8117,1460,1225,1235,1472,6345,10485,14856,6345
7751,1462,1251,1231,1479,6345,10485,14856,6345
8117,1469,1293,1197,1470,6345,10485,14856,6345
8117,1466,1217,1240,1472,6345,10485,14856,6345
8117,1465,1257,1166,1477,6345,10485,14856,6345
7751,1473,1220,1239,1476,6345,10485,14856,6345
8117,1462,1257,1241,1469,6345,10485,14856,6345
8117,1461,1259,1242,1474,6345,10485,14856,6345
7751,1466,1230,1243,1477,6345,10485,14856,6345
8117,1467,1297,1248,1473,6345,10485,14856,6345
8117,1463,1262,1174,1482,6345,10485,14856,6345
7751,1468,1224,1255,1480,6345,10485,14856,6345
8117,1465,1227,1217,1471,6345,10485,14856,6345
8117,1476,1268,1252,1484,6345,10485,14856,6345
7751,1469,1233,1232,1481,6345,10485,14856,6345
8117,1465,1303,1222,1475,6345,10485,14856,6345
8117,1473,1233,1258,1465,6345,10485,14856,6345
7751,1465,1308,1229,1479,6345,10485,14856,6345
8117,1466,1232,1256,1475,6345,10485,14856,6345
8117,1462,1263,1272,1470,6345,10485,14856,6345
7751,1466,1266,1224,1485,6345,10485,14856,6345
8117,1464,1256,1258,1480,6345,10485,14856,6345
8117,1470,1270,1269,1470,6345,10485,14856,6345
7751,1466,1271,1193,1486,6345,10485,14856,6345
8117,1471,1235,1274,1473,6345,10485,14856,6345
8117,1473,1274,1199,1474,6345,10485,14856,6345
8117,1466,1277,1277,1476,6345,10485,14856,6345
7843,1468,1313,1271,1473,6345,10466,14852,6345
8117,1468,1258,1280,1477,6345,10466,14852,6345
7751,1470,1292,1242,1478,6345,10466,14852,6345
8117,1467,1222,1274,1478,6345,10466,14852,6345
8117,1466,1260,1206,1471,6345,10466,14852,6345
7751,1463,1218,1274,1478,6345,10466,14852,6345
8117,1465,1225,1272,1476,6345,10466,14852,6345
8117,1464,1254,1270,1469,6345,10466,14852,6345
7751,1468,1222,1269,1472,6345,10466,14852,6345
8117,1465,1287,1270,1474,6345,10466,14852,6345
8117,1461,1261,1189,1467,6345,10466,14852,6345
7751,1461,1226,1274,1479,6345,10466,14852,6345
8117,1464,1216,1234,1474,6345,10466,14852,6345
8117,1461,1263,1276,1468,6345,10466,14852,6345
8117,1464,1247,1279,1480,6345,10466,14852,6345
7751,1466,1295,1241,1475,6345,10466,14852,6345
8117,1466,1230,1274,1474,6345,10466,14852,6345
8117,1458,1255,1218,1482,6345,10466,14852,6345
7751,1468,1220,1264,1479,6345,10466,14852,6345
8117,1464,1223,1277,1474,6345,10466,14852,6345
8117,1466,1258,1275,1481,6345,10466,14852,6345
7751,1459,1251,1272,1478,6345,10466,14852,6345
8117,1469,1288,1273,1476,6345,10466,14852,6345
8117,1470,1252,1195,1479,6345,10466,14852,6345
7751,1458,1212,1269,1480,6345,10466,14852,6345
8117,1462,1215,1234,1470,6345,10466,14852,6345
8117,1469,1255,1271,1469,6345,10466,14852,6345
7751,1469,1219,1263,1475,6345,10466,14852,6345
8117,1463,1294,1236,1474,6345,10466,14852,6345
8117,1465,1223,1268,1468,6345,10466,14852,6345
7751,1467,1261,1273,1478,6345,10466,14852,6345
8117,1463,1225,1238,1470,6345,10466,14852,6345
8117,1461,1220,1274,1471,6345,10466,14852,6345
7751,1464,1254,1279,1485,6345,10466,14852,6345
8117,1469,1292,1236,1471,6345,10466,14852,6345
8117,1467,1220,1271,1473,6345,10466,14852,6345
8117,1467,1255,1198,1478,6345,10466,14852,6345
7751,1469,1223,1267,1475,6345,10466,14852,6345
8117,1462,1260,1220,1474,6345,10466,14852,6345
8117,1464,1259,1269,1476,6345,10466,14852,6345
7751,1466,1220,1269,1473,6345,10466,14852,6345
8117,1468,1286,1270,1472,6345,10466,14852,6345
8117,1466,1258,1256,1476,6345,10466,14852,6345
7751,1466,1288,1277,1475,6345,10466,14852,6345
8117,1466,1226,1237,1474,6345,10466,14852,6345
8117,1466,1238,1276,1479,6345,10466,14852,6345
7751,1466,1223,1244,1478,6345,10466,14852,6345
8117,1467,1296,1238,1473,6345,10466,14852,6345
8117,1467,1226,1274,1468,6345,10466,14852,6345
7751,1466,1299,1237,1482,6345,10466,14852,6345
8117,1467,1223,1277,1476,6345,10466,14852,6345
8117,1464,1258,1278,1469,6345,10466,14852,6345
7751,1467,1257,1244,1480,6345,10466,14852,6345
8117,1469,1233,1279,1473,6345,10466,14852,6345
8117,1465,1262,1283,1463,6345,10466,14852,6345
7751,1466,1259,1205,1480,6345,10466,14852,6345
8117,1467,1219,1274,1475,6345,10466,14852,6345
8117,1466,1256,1201,1469,6345,10466,14852,6345
8117,1462,1268,1277,1475,6345,10466,14852,6345
7751,1466,1225,1256,1476,6345,10466,14852,6345
8117,1461,1261,1279,1470,6345,10466,14852,6345
8117,1468,1229,1278,1478,6345,10466,14852,6345
7751,1471,1299,1254,1473,6345,10466,14852,6345
8117,1458,1226,1257,1469,6345,10466,14852,6345
8117,1463,1254,1282,1478,6345,10466,14852,6345
7751,1467,1229,1245,1478,6345,10466,14852,6345
8117,1463,1260,1274,1474,6345,10466,14852,6345
8117,1469,1263,1277,1481,6345,10466,14852,6345
7751,1464,1304,1241,1475,6345,10466,14852,6345
8117,1464,1226,1278,1471,6345,10466,14852,6345
8117,1469,1264,1214,1468,6345,10466,14852,6345
7751,1466,1226,1277,1480,6345,10466,14852,6345
8117,1465,1232,1280,1474,6345,10466,14852,6345
8117,1466,1265,1283,1465,6345,10466,14852,6345
7751,1469,1233,1275,1477,6345,10466,14852,6345
8117,1461,1292,1278,1472,6345,10466,14852,6345
8117,1462,1263,1205,1471,6345,10466,14852,6345
7751,1461,1232,1284,1482,6345,10466,14852,6345
8117,1468,1224,1243,1477,6345,10466,14852,6345
8117,1461,1262,1277,1472,6345,10466,14852,6345
8117,1460,1221,1276,1477,6345,10466,14852,6345
7751,1461,1299,1234,1478,6345,10466,14852,6345
8117,1465,1222,1264,1470,6345,10466,14852,6345
8117,1467,1259,1222,1481,6345,10466,14852,6345
7751,1469,1219,1255,1474,6345,10466,14852,6345
8117,1465,1224,1272,1471,6345,10466,14852,6345
8117,1461,1258,1276,1481,6345,10466,14852,6345
7751,1466,1292,1268,1476,6345,10466,14852,6345
8117,1466,1291,1280,1470,6345,10466,14852,6345
8117,1466,1264,1208,1484,6345,10466,14852,6345
7751,1467,1230,1283,1479,6345,10466,14852,6345
8117,1467,1237,1250,1467,6345,10466,14852,6345
8117,1461,1270,1294,1468,6345,10466,14852,6345
7751,1461,1233,1289,1479,6345,10466,14852,6345
8117,1465,1300,1251,1476,6345,10466,14852,6345
8117,1465,1243,1279,1470,6345,10466,14852,6345
7751,1464,1265,1288,1483,6345,10466,14852,6345
8117,1466,1235,1259,1475,6345,10466,14852,6345
8117,1464,1237,1291,1470,6345,10466,14852,6345
7751,1465,1273,1307,1484,6345,10466,14852,6345
8117,1465,1312,1261,1476,6345,10466,14852,6345
8117,1467,1246,1302,1469,6345,10466,14852,6345
8117,1471,1273,1237,1476,6345,10466,14852,6345
7751,1464,1243,1312,1472,6345,10466,14852,6345
8117,1463,1280,1270,1470,6345,10466,14852,6345
8117,1463,1281,1311,1476,6345,10466,14852,6345
7751,1466,1248,1307,1478,6345,10466,14852,6345
8117,1465,1314,1304,1473,6345,10466,14852,6345
8117,1470,1283,1287,1475,6345,10466,14852,6345
7751,1466,1306,1312,1478,6345,10466,14852,6345
8117,1463,1244,1273,1474,6345,10466,14852,6345
8117,1464,1282,1314,1484,6345,10466,14852,6345
7751,1466,1253,1287,1481,6345,10466,14852,6345
8117,1462,1329,1286,1474,6345,10466,14852,6345
8117,1469,1262,1317,1469,6345,10466,14852,6345
7751,1466,1333,1288,1482,6345,10466,14852,6345
8117,1466,1262,1319,1474,6345,10466,14852,6345
8117,1466,1297,1328,1470,6345,10466,14852,6345
7751,1467,1295,1287,1485,6345,10466,14852,6345
8117,1465,1267,1317,1477,6345,10466,14852,6345
8117,1466,1290,1321,1471,6345,10466,14852,6345
7751,1461,1285,1238,1484,6345,10466,14852,6345
8117,1468,1248,1315,1477,6345,10466,14852,6345
8117,1466,1290,1245,1471,6345,10466,14852,6345
8117,1468,1290,1320,1478,6345,10466,14852,6345
7843,1463,1272,1320,1476,6345,10438,14814,6345
8117,1461,1270,1275,1480,6345,10438,14814,6345
7751,1467,1314,1237,1478,6345,10438,14814,6345
8117,1466,1233,1277,1474,6345,10438,14814,6345
8117,1464,1271,1200,1469,6345,10438,14814,6345
7751,1464,1236,1278,1477,6345,10438,14814,6345
8117,1470,1236,1254,1471,6345,10438,14814,6345
8117,1467,1268,1283,1469,6345,10438,14814,6345
7751,1464,1239,1272,1478,6345,10438,14814,6345
8117,1463,1303,1242,1474,6345,10438,14814,6345
8117,1464,1269,1246,1463,6345,10438,14814,6345
7751,1459,1260,1264,1478,6345,10438,14814,6345
8117,1464,1232,1227,1476,6345,10438,14814,6345
8117,1459,1266,1267,1473,6345,10438,14814,6345
8117,1466,1258,1265,1478,6345,10438,14814,6345
7751,1463,1297,1237,1478,6345,10438,14814,6345
8117,1461,1229,1268,1467,6345,10438,14814,6345
8117,1464,1268,1203,1483,6345,10438,14814,6345
7751,1468,1229,1270,1477,6345,10438,14814,6345
8117,1467,1268,1277,1473,6345,10438,14814,6345
8117,1466,1271,1284,1485,6345,10438,14814,6345
7751,1466,1243,1278,1475,6345,10438,14814,6345
8117,1464,1295,1278,1471,6345,10438,14814,6345
8117,1466,1267,1190,1485,6345,10438,14814,6345
7751,1461,1232,1272,1480,6345,10438,14814,6345
8117,1465,1222,1238,1473,6345,10438,14814,6345
8117,1469,1259,1276,1467,6345,10438,14814,6345
7751,1466,1229,1272,1476,6345,10438,14814,6345
8117,1461,1300,1241,1478,6345,10438,14814,6345
8117,1467,1230,1274,1472,6345,10438,14814,6345
7751,1461,1302,1255,1481,6345,10438,14814,6345
8117,1468,1233,1260,1474,6345,10438,14814,6345
8117,1467,1265,1282,1471,6345,10438,14814,6345
7751,1466,1267,1277,1481,6345,10438,14814,6345
8117,1462,1302,1268,1471,6345,10438,14814,6345
8117,1464,1265,1279,1472,6345,10438,14814,6345
8117,1458,1271,1211,1474,6345,10438,14814,6345
7751,1469,1238,1279,1473,6345,10438,14814,6345
8117,1468,1270,1218,1469,6345,10438,14814,6345
8117,1467,1269,1283,1476,6345,10438,14814,6345
7751,1466,1241,1282,1478,6345,10438,14814,6345
8117,1468,1274,1284,1471,6345,10438,14814,6345
8117,1467,1242,1280,1476,6345,10438,14814,6345
7751,1466,1304,1287,1476,6345,10438,14814,6345
8117,1460,1233,1244,1470,6345,10438,14814,6345
8117,1467,1242,1290,1478,6345,10438,14814,6345
7751,1463,1241,1254,1480,6345,10438,14814,6345
8117,1463,1313,1246,1469,6345,10438,14814,6345
8117,1466,1236,1285,1470,6345,10438,14814,6345
7751,1469,1306,1251,1484,6345,10438,14814,6345
8117,1464,1235,1292,1474,6345,10438,14814,6345
8117,1466,1276,1249,1470,6345,10438,14814,6345
7751,1466,1244,1276,1478,6345,10438,14814,6345
8117,1469,1241,1294,1476,6345,10438,14814,6345
8117,1461,1277,1297,1469,6345,10438,14814,6345
7751,1465,1271,1262,1481,6345,10438,14814,6345
8117,1467,1298,1292,1470,6345,10438,14814,6345
8117,1464,1276,1213,1474,6345,10438,14814,6345
8117,1460,1272,1289,1479,6345,10438,14814,6345
7751,1465,1232,1257,1477,6345,10438,14814,6345
8117,1466,1271,1284,1467,6345,10438,14814,6345
8117,1466,1235,1289,1478,6345,10438,14814,6345
7751,1466,1311,1255,1478,6345,10438,14814,6345
8117,1467,1244,1279,1471,6345,10438,14814,6345
8117,1466,1274,1291,1479,6345,10438,14814,6345
7751,1465,1233,1257,1475,6345,10438,14814,6345
8117,1463,1251,1291,1472,6345,10438,14814,6345
8117,1462,1279,1294,1483,6345,10438,14814,6345
7751,1468,1314,1257,1477,6345,10438,14814,6345
8117,1462,1237,1292,1473,6345,10438,14814,6345
8117,1464,1270,1216,1472,6345,10438,14814,6345
7751,1466,1233,1288,1479,6345,10438,14814,6345
8117,1473,1235,1287,1469,6345,10438,14814,6345
8117,1467,1268,1289,1472,6345,10438,14814,6345
7751,1461,1230,1280,1481,6345,10438,14814,6345
8117,1467,1303,1263,1472,6345,10438,14814,6345
8117,1466,1264,1248,1470,6345,10438,14814,6345
7751,1466,1262,1284,1477,6345,10438,14814,6345
8117,1464,1232,1248,1475,6345,10438,14814,6345
8117,1467,1269,1290,1470,6345,10438,14814,6345
8117,1466,1263,1291,1473,6345,10438,14814,6345
7751,1469,1307,1257,1477,6345,10438,14814,6345
8117,1463,1244,1293,1474,6345,10438,14814,6345
8117,1465,1274,1226,1478,6345,10438,14814,6345
7751,1469,1244,1291,1475,6345,10438,14814,6345
8117,1465,1239,1299,1468,6345,10438,14814,6345
8117,1461,1275,1301,1481,6345,10438,14814,6345
7751,1462,1256,1292,1477,6345,10438,14814,6345
8117,1464,1305,1297,1474,6345,10438,14814,6345
8117,1471,1278,1224,1479,6345,10438,14814,6345
7751,1467,1243,1301,1478,6345,10438,14814,6345
8117,1467,1246,1270,1472,6345,10438,14814,6345
8117,1463,1279,1313,1466,6345,10438,14814,6345
7751,1466,1248,1311,1479,6345,10438,14814,6345
8117,1463,1316,1274,1467,6345,10438,14814,6345
8117,1461,1256,1314,1469,6345,10438,14814,6345
7751,1465,1284,1299,1477,6345,10438,14814,6345
8117,1460,1247,1281,1471,6345,10438,14814,6345
8117,1462,1276,1313,1470,6345,10438,14814,6345
7751,1464,1284,1317,1481,6345,10438,14814,6345
8117,1463,1313,1303,1476,6345,10438,14814,6345
8117,1462,1278,1316,1470,6345,10438,14814,6345
8117,1462,1290,1247,1475,6345,10438,14814,6345
7751,1465,1244,1325,1477,6345,10438,14814,6345
8117,1466,1286,1255,1467,6345,10438,14814,6345
8117,1467,1289,1327,1477,6345,10438,14814,6345
7751,1466,1255,1322,1473,6345,10438,14814,6345
8117,1465,1320,1330,1470,6345,10438,14814,6345
8117,1469,1265,1314,1474,6345,10438,14814,6345
7751,1461,1320,1322,1477,6345,10438,14814,6345
8117,1466,1244,1289,1468,6345,10438,14814,6345
8117,1462,1260,1320,1480,6345,10438,14814,6345
7751,1466,1247,1285,1472,6345,10438,14814,6345
8117,1466,1325,1292,1472,6345,10438,14814,6345
8117,1471,1257,1328,1471,6345,10438,14814,6345
7751,1462,1330,1294,1478,6345,10438,14814,6345
8117,1466,1252,1325,1472,6345,10438,14814,6345
8117,1469,1289,1332,1467,6345,10438,14814,6345
7751,1464,1290,1291,1481,6345,10438,14814,6345
8117,1465,1255,1323,1474,6345,10438,14814,6345
8117,1464,1284,1320,1470,6345,10438,14814,6345
7751,1464,1285,1281,1483,6345,10438,14814,6345
8117,1467,1296,1324,1478,6345,10438,14814,6345
8117,1466,1281,1240,1470,6345,10438,14814,6345
8117,1466,1283,1320,1478,6345,10438,14814,6345
7843,1465,1256,1320,1470,6345,10401,14758,6345
8117,1459,1233,1277,1477,6345,10401,14758,6345
7751,1461,1268,1249,1476,6345,10401,14758,6345
8117,1466,1249,1272,1471,6345,10401,14758,6345
8117,1467,1230,1193,1480,6345,10401,14758,6345
7751,1466,1190,1272,1476,6345,10401,14758,6345
8117,1462,1199,1239,1469,6345,10401,14758,6345
8117,1458,1230,1271,1473,6345,10401,14758,6345
7751,1466,1198,1271,1480,6345,10401,14758,6345
8117,1461,1267,1243,1472,6345,10401,14758,6345
8117,1469,1207,1269,1471,6345,10401,14758,6345
7751,1459,1234,1278,1480,6345,10401,14758,6345
8117,1467,1194,1240,1470,6345,10401,14758,6345
8117,1463,1205,1279,1468,6345,10401,14758,6345
7751,1459,1231,1275,1477,6345,10401,14758,6345
8117,1463,1266,1243,1471,6345,10401,14758,6345
8117,1461,1200,1281,1467,6345,10401,14758,6345
8117,1465,1231,1199,1476,6345,10401,14758,6345
7751,1467,1195,1280,1470,6345,10401,14758,6345
8117,1469,1229,1277,1476,6345,10401,14758,6345
8117,1466,1235,1278,1482,6345,10401,14758,6345
7751,1466,1198,1280,1476,6345,10401,14758,6345
8117,1467,1276,1285,1472,6345,10401,14758,6345
8117,1461,1236,1209,1484,6345,10401,14758,6345
7751,1469,1248,1290,1476,6345,10401,14758,6345
8117,1467,1202,1257,1474,6345,10401,14758,6345
8117,1465,1242,1297,1480,6345,10401,14758,6345
7751,1468,1204,1264,1476,6345,10401,14758,6345
8117,1465,1277,1257,1472,6345,10401,14758,6345
8117,1463,1204,1291,1469,6345,10401,14758,6345
7751,1466,1284,1260,1479,6345,10401,14758,6345
8117,1464,1205,1290,1473,6345,10401,14758,6345
8117,1463,1239,1294,1473,6345,10401,14758,6345
7751,1458,1238,1257,1480,6345,10401,14758,6345
8117,1467,1226,1296,1473,6345,10401,14758,6345
8117,1461,1242,1304,1467,6345,10401,14758,6345
8117,1465,1240,1222,1478,6345,10401,14758,6345
7751,1467,1207,1301,1475,6345,10401,14758,6345
8117,1466,1243,1233,1469,6345,10401,14758,6345
8117,1464,1251,1306,1481,6345,10401,14758,6345
7751,1465,1212,1300,1473,6345,10401,14758,6345
8117,1463,1245,1304,1473,6345,10401,14758,6345
8117,1460,1210,1292,1479,6345,10401,14758,6345
7751,1467,1277,1302,1471,6345,10401,14758,6345
8117,1470,1203,1222,1469,6345,10401,14758,6345
8117,1473,1207,1295,1479,6345,10401,14758,6345
7751,1469,1209,1265,1474,6345,10401,14758,6345
8117,1466,1277,1289,1466,6345,10401,14758,6345
8117,1462,1236,1307,1479,6345,10401,14758,6345
7751,1467,1277,1268,1478,6345,10401,14758,6345
8117,1467,1205,1307,1469,6345,10401,14758,6345
8117,1464,1247,1244,1463,6345,10401,14758,6345
7751,1466,1201,1298,1479,6345,10401,14758,6345
8117,1468,1214,1302,1475,6345,10401,14758,6345
8117,1469,1241,1309,1467,6345,10401,14758,6345
7751,1461,1213,1295,1481,6345,10401,14758,6345
8117,1467,1272,1307,1473,6345,10401,14758,6345
8117,1459,1246,1230,1465,6345,10401,14758,6345
8117,1466,1219,1307,1476,6345,10401,14758,6345
7751,1464,1216,1270,1472,6345,10401,14758,6345
8117,1469,1241,1313,1474,6345,10401,14758,6345
8117,1461,1207,1308,1479,6345,10401,14758,6345
7751,1469,1277,1273,1475,6345,10401,14758,6345
8117,1465,1211,1299,1471,6345,10401,14758,6345
8117,1464,1241,1306,1478,6345,10401,14758,6345
7751,1469,1199,1267,1477,6345,10401,14758,6345
8117,1462,1208,1313,1474,6345,10401,14758,6345
8117,1467,1234,1302,1478,6345,10401,14758,6345
7751,1466,1282,1267,1477,6345,10401,14758,6345
8117,1469,1251,1309,1471,6345,10401,14758,6345
8117,1473,1239,1231,1470,6345,10401,14758,6345
7751,1461,1207,1305,1479,6345,10401,14758,6345
8117,1462,1208,1282,1469,6345,10401,14758,6345
8117,1467,1243,1313,1471,6345,10401,14758,6345
7751,1465,1212,1315,1482,6345,10401,14758,6345
8117,1468,1281,1280,1471,6345,10401,14758,6345
8117,1471,1224,1311,1470,6345,10401,14758,6345
7751,1469,1245,1315,1479,6345,10401,14758,6345
8117,1464,1212,1289,1477,6345,10401,14758,6345
8117,1458,1225,1321,1467,6345,10401,14758,6345
8117,1469,1245,1320,1474,6345,10401,14758,6345
7751,1471,1286,1285,1470,6345,10401,14758,6345
8117,1466,1212,1321,1472,6345,10401,14758,6345
8117,1469,1245,1255,1477,6345,10401,14758,6345
7751,1465,1208,1321,1476,6345,10401,14758,6345
8117,1462,1241,1323,1469,6345,10401,14758,6345
8117,1466,1245,1330,1482,6345,10401,14758,6345
7751,1469,1215,1327,1477,6345,10401,14758,6345
8117,1461,1280,1328,1474,6345,10401,14758,6345
8117,1462,1247,1260,1479,6345,10401,14758,6345
7751,1459,1215,1335,1478,6345,10401,14758,6345
8117,1466,1208,1308,1471,6345,10401,14758,6345
8117,1473,1252,1343,1469,6345,10401,14758,6345
7751,1469,1219,1313,1478,6345,10401,14758,6345
8117,1466,1291,1304,1474,6345,10401,14758,6345
8117,1468,1222,1346,1465,6345,10401,14758,6345
7751,1458,1284,1304,1483,6345,10401,14758,6345
8117,1470,1208,1330,1469,6345,10401,14758,6345
8117,1463,1244,1335,1469,6345,10401,14758,6345
7751,1469,1245,1293,1479,6345,10401,14758,6345
8117,1464,1232,1322,1472,6345,10401,14758,6345
8117,1469,1241,1328,1471,6345,10401,14758,6345
8117,1469,1244,1255,1477,6345,10401,14758,6345
7751,1464,1204,1331,1480,6345,10401,14758,6345
8117,1471,1248,1258,1466,6345,10401,14758,6345
8117,1466,1244,1332,1478,6345,10401,14758,6345
7751,1465,1207,1333,1475,6345,10401,14758,6345
8117,1463,1243,1337,1470,6345,10401,14758,6345
8117,1467,1214,1327,1479,6345,10401,14758,6345
7751,1471,1274,1336,1478,6345,10401,14758,6345
8117,1464,1210,1291,1473,6345,10401,14758,6345
8117,1469,1201,1328,1476,6345,10401,14758,6345
7751,1467,1200,1292,1472,6345,10401,14758,6345
8117,1464,1272,1287,1471,6345,10401,14758,6345
8117,1471,1220,1323,1468,6345,10401,14758,6345
7751,1459,1270,1285,1476,6345,10401,14758,6345
8117,1464,1193,1325,1472,6345,10401,14758,6345
8117,1466,1231,1268,1470,6345,10401,14758,6345
7751,1466,1202,1315,1479,6345,10401,14758,6345
8117,1467,1193,1330,1476,6345,10401,14758,6345
8117,1464,1236,1334,1470,6345,10401,14758,6345
7751,1464,1210,1325,1483,6345,10401,14758,6345
8117,1465,1262,1329,1475,6345,10401,14758,6345
8117,1460,1232,1258,1467,6345,10401,14758,6345
8117,1464,1203,1332,1478,6345,10401,14758,6345
7843,1465,1202,1330,1474,6345,10396,14687,6345
8117,1461,1228,1237,1481,6345,10396,14687,6345
7751,1466,1226,1229,1477,6345,10396,14687,6345
8117,1464,1261,1236,1474,6345,10396,14687,6345
8117,1461,1225,1157,1479,6345,10396,14687,6345
7751,1469,1193,1237,1474,6345,10396,14687,6345
8117,1464,1193,1198,1471,6345,10396,14687,6345
8117,1460,1226,1234,1464,6345,10396,14687,6345
7751,1461,1190,1231,1478,6345,10396,14687,6345
8117,1468,1262,1195,1474,6345,10396,14687,6345
8117,1466,1191,1230,1470,6345,10396,14687,6345
7751,1463,1225,1233,1478,6345,10396,14687,6345
8117,1462,1191,1195,1478,6345,10396,14687,6345
8117,1469,1200,1235,1471,6345,10396,14687,6345
7751,1466,1226,1242,1480,6345,10396,14687,6345
8117,1468,1262,1203,1473,6345,10396,14687,6345
8117,1469,1194,1245,1463,6345,10396,14687,6345
8117,1465,1233,1180,1479,6345,10396,14687,6345
7720,1466,1200,1252,1476,6345,10396,14687,6345
8117,1466,1200,1218,1471,6345,10396,14687,6345
8117,1465,1236,1258,1480,6345,10396,14687,6345
7751,1467,1198,1254,1478,6345,10396,14687,6345
8117,1468,1270,1219,1466,6345,10396,14687,6345
8117,1466,1202,1247,1472,6345,10396,14687,6345
7751,1466,1267,1258,1484,6345,10396,14687,6345
8117,1467,1198,1218,1470,6345,10396,14687,6345
8117,1466,1200,1254,1465,6345,10396,14687,6345
7751,1473,1229,1218,1481,6345,10396,14687,6345
8117,1466,1277,1217,1476,6345,10396,14687,6345
8117,1459,1191,1249,1469,6345,10396,14687,6345
7751,1464,1230,1180,1482,6345,10396,14687,6345
8117,1470,1200,1259,1470,6345,10396,14687,6345
8117,1466,1236,1202,1471,6345,10396,14687,6345
8117,1469,1231,1264,1479,6345,10396,14687,6345
7720,1460,1194,1261,1479,6345,10396,14687,6345
8117,1465,1273,1222,1473,6345,10396,14687,6345
8117,1469,1204,1256,1481,6345,10396,14687,6345
7751,1461,1269,1259,1474,6345,10396,14687,6345
8117,1465,1197,1220,1470,6345,10396,14687,6345
8117,1467,1199,1259,1471,6345,10396,14687,6345
7751,1469,1200,1221,1478,6345,10396,14687,6345
8117,1466,1270,1220,1471,6345,10396,14687,6345
8117,1466,1193,1259,1475,6345,10396,14687,6345
7751,1464,1238,1221,1475,6345,10396,14687,6345
8117,1464,1194,1260,1474,6345,10396,14687,6345
8117,1466,1229,1206,1466,6345,10396,14687,6345
7751,1458,1227,1261,1482,6345,10396,14687,6345
8117,1466,1197,1260,1470,6345,10396,14687,6345
8117,1467,1227,1258,1468,6345,10396,14687,6345
8117,1462,1227,1244,1477,6345,10396,14687,6345
7751,1467,1250,1250,1469,6345,10396,14687,6345
8117,1469,1226,1182,1468,6345,10396,14687,6345
8117,1469,1203,1255,1475,6345,10396,14687,6345
7751,1469,1197,1226,1474,6345,10396,14687,6345
8117,1465,1265,1267,1471,6345,10396,14687,6345
8117,1466,1194,1261,1481,6345,10396,14687,6345
7720,1466,1272,1234,1481,6345,10396,14687,6345
8117,1467,1196,1270,1471,6345,10396,14687,6345
8117,1463,1238,1208,1469,6345,10396,14687,6345
7751,1466,1236,1258,1479,6345,10396,14687,6345
8117,1459,1208,1274,1472,6345,10396,14687,6345
8117,1469,1242,1274,1466,6345,10396,14687,6345
7751,1468,1241,1260,1482,6345,10396,14687,6345
8117,1463,1270,1286,1476,6345,10396,14687,6345
8117,1466,1244,1216,1469,6345,10396,14687,6345
8117,1466,1220,1288,1480,6345,10396,14687,6345
7751,1469,1208,1256,1477,6345,10396,14687,6345
8117,1463,1251,1294,1469,6345,10396,14687,6345
8117,1466,1215,1288,1482,6345,10396,14687,6345
7751,1464,1284,1264,1474,6345,10396,14687,6345
8117,1464,1219,1291,1468,6345,10396,14687,6345
8117,1466,1246,1302,1483,6345,10396,14687,6345
7751,1471,1216,1263,1473,6345,10396,14687,6345
8117,1465,1219,1299,1471,6345,10396,14687,6345
8117,1466,1248,1306,1482,6345,10396,14687,6345
7720,1467,1289,1297,1482,6345,10396,14687,6345
8117,1465,1280,1313,1477,6345,10396,14687,6345
8117,1467,1259,1236,1471,6345,10396,14687,6345
7751,1469,1240,1311,1485,6345,10396,14687,6345
8117,1463,1230,1279,1471,6345,10396,14687,6345
8117,1466,1261,1315,1472,6345,10396,14687,6345
8117,1460,1225,1313,1475,6345,10396,14687,6345
7751,1466,1295,1279,1474,6345,10396,14687,6345
8117,1472,1228,1299,1472,6345,10396,14687,6345
8117,1469,1255,1301,1476,6345,10396,14687,6345
7751,1468,1223,1271,1475,6345,10396,14687,6345
8117,1460,1220,1312,1474,6345,10396,14687,6345
8117,1464,1253,1302,1480,6345,10396,14687,6345
7751,1467,1293,1272,1476,6345,10396,14687,6345
8117,1464,1226,1306,1472,6345,10396,14687,6345
8117,1470,1250,1244,1485,6345,10396,14687,6345
7751,1470,1213,1308,1479,6345,10396,14687,6345
8117,1462,1218,1285,1472,6345,10396,14687,6345
8117,1473,1252,1311,1473,6345,10396,14687,6345
7720,1469,1217,1311,1483,6345,10396,14687,6345
8117,1466,1291,1273,1477,6345,10396,14687,6345
8117,1461,1222,1300,1466,6345,10396,14687,6345
8117,1467,1244,1305,1476,6345,10396,14687,6345
7751,1461,1204,1264,1475,6345,10396,14687,6345
8117,1461,1216,1301,1469,6345,10396,14687,6345
8117,1464,1240,1300,1479,6345,10396,14687,6345
7751,1469,1277,1264,1474,6345,10396,14687,6345
8117,1464,1205,1300,1469,6345,10396,14687,6345
8117,1463,1245,1230,1476,6345,10396,14687,6345
7751,1466,1206,1297,1473,6345,10396,14687,6345
8117,1468,1197,1247,1472,6345,10396,14687,6345
8117,1468,1238,1307,1479,6345,10396,14687,6345
7751,1467,1205,1301,1478,6345,10396,14687,6345
8117,1466,1272,1269,1473,6345,10396,14687,6345
8117,1467,1243,1275,1468,6345,10396,14687,6345
7751,1458,1259,1304,1478,6345,10396,14687,6345
8117,1463,1197,1260,1473,6345,10396,14687,6345
8117,1467,1238,1307,1463,6345,10396,14687,6345
7720,1466,1237,1314,1481,6345,10396,14687,6345
8117,1466,1271,1265,1473,6345,10396,14687,6345
8117,1465,1206,1309,1468,6345,10396,14687,6345
8117,1458,1240,1233,1474,6345,10396,14687,6345
7751,1466,1203,1300,1472,6345,10396,14687,6345
8117,1468,1241,1257,1473,6345,10396,14687,6345
8117,1466,1240,1313,1476,6345,10396,14687,6345
7751,1463,1213,1311,1480,6345,10396,14687,6345
8117,1465,1276,1316,1470,6345,10396,14687,6345
8117,1468,1245,1294,1483,6345,10396,14687,6345
7751,1460,1270,1329,1477,6345,10396,14687,6345
8117,1465,1209,1290,1475,6345,10396,14687,6345
8117,1464,1251,1337,1483,6345,10396,14687,6345
7843,1467,1221,1331,1470,6345,10391,14649,6345
8117,1459,1250,1307,1472,6345,10391,14649,6345
8087,1463,1223,1300,1478,6345,10391,14649,6345
7751,1469,1285,1304,1475,6345,10391,14649,6345
8117,1466,1250,1236,1471,6345,10391,14649,6345
8117,1469,1221,1300,1479,6345,10391,14649,6345
7751,1464,1211,1266,1476,6345,10391,14649,6345
8117,1468,1281,1265,1468,6345,10391,14649,6345
8117,1467,1213,1300,1481,6345,10391,14649,6345
7751,1468,1284,1265,1474,6345,10391,14649,6345
8117,1467,1211,1297,1473,6345,10391,14649,6345
8117,1466,1250,1248,1465,6345,10391,14649,6345
7751,1471,1211,1281,1478,6345,10391,14649,6345
8117,1466,1220,1299,1470,6345,10391,14649,6345
8117,1463,1249,1306,1471,6345,10391,14649,6345
7751,1461,1248,1294,1480,6345,10391,14649,6345
8117,1462,1263,1308,1473,6345,10391,14649,6345
8117,1461,1247,1230,1469,6345,10391,14649,6345
7751,1462,1245,1302,1479,6345,10391,14649,6345
8117,1463,1213,1266,1473,6345,10391,14649,6345
8117,1461,1243,1305,1468,6345,10391,14649,6345
8087,1462,1212,1304,1479,6345,10391,14649,6345
7751,1466,1281,1262,1474,6345,10391,14649,6345
8117,1463,1212,1297,1470,6345,10391,14649,6345
8117,1464,1246,1249,1474,6345,10391,14649,6345
7751,1467,1211,1284,1480,6345,10391,14649,6345
8117,1463,1215,1312,1475,6345,10391,14649,6345
8117,1462,1249,1312,1470,6345,10391,14649,6345
7751,1458,1288,1293,1480,6345,10391,14649,6345
8117,1465,1277,1313,1474,6345,10391,14649,6345
8117,1469,1254,1235,1469,6345,10391,14649,6345
7751,1466,1217,1312,1484,6345,10391,14649,6345
8117,1465,1225,1285,1476,6345,10391,14649,6345
8117,1467,1253,1317,1471,6345,10391,14649,6345
7751,1469,1226,1314,1481,6345,10391,14649,6345
8117,1465,1291,1278,1469,6345,10391,14649,6345
8117,1471,1226,1307,1471,6345,10391,14649,6345
8117,1466,1251,1314,1476,6345,10391,14649,6345
7751,1466,1213,1280,1474,6345,10391,14649,6345
8117,1466,1219,1312,1467,6345,10391,14649,6345
8087,1464,1255,1318,1479,6345,10391,14649,6345
7751,1467,1291,1306,1477,6345,10391,14649,6345
8117,1466,1274,1324,1469,6345,10391,14649,6345
8117,1464,1257,1251,1479,6345,10391,14649,6345
7751,1464,1222,1324,1478,6345,10391,14649,6345
8117,1463,1228,1295,1478,6345,10391,14649,6345
8117,1461,1267,1335,1473,6345,10391,14649,6345
7751,1469,1226,1331,1475,6345,10391,14649,6345
8117,1467,1307,1300,1473,6345,10391,14649,6345
8117,1463,1233,1326,1472,6345,10391,14649,6345
7751,1466,1260,1335,1477,6345,10391,14649,6345
8117,1462,1226,1297,1475,6345,10391,14649,6345
8117,1467,1237,1339,1475,6345,10391,14649,6345
8117,1467,1262,1340,1475,6345,10391,14649,6345
7751,1469,1299,1303,1477,6345,10391,14649,6345
8117,1463,1224,1343,1473,6345,10391,14649,6345
8117,1469,1268,1275,1474,6345,10391,14649,6345
7751,1466,1226,1346,1477,6345,10391,14649,6345
8117,1466,1268,1306,1472,6345,10391,14649,6345
8117,1466,1267,1349,1478,6345,10391,14649,6345
7751,1464,1239,1357,1483,6345,10391,14649,6345
8117,1469,1307,1358,1472,6345,10391,14649,6345
8087,1460,1249,1351,1466,6345,10391,14649,6345
7751,1467,1306,1371,1478,6345,10391,14649,6345
8117,1460,1248,1335,1473,6345,10391,14649,6345
8117,1469,1253,1371,1473,6345,10391,14649,6345
7751,1462,1281,1337,1478,6345,10391,14649,6345
8117,1465,1313,1338,1476,6345,10391,14649,6345
8117,1469,1250,1368,1472,6345,10391,14649,6345
7751,1469,1278,1291,1485,6345,10391,14649,6345
8117,1466,1238,1366,1479,6345,10391,14649,6345
8117,1467,1278,1325,1474,6345,10391,14649,6345
8117,1465,1276,1361,1478,6345,10391,14649,6345
7751,1469,1248,1364,1476,6345,10391,14649,6345
8117,1463,1273,1377,1472,6345,10391,14649,6345
8117,1467,1277,1328,1481,6345,10391,14649,6345
7751,1471,1294,1365,1479,6345,10391,14649,6345
8117,1470,1242,1298,1469,6345,10391,14649,6345
8117,1468,1278,1367,1478,6345,10391,14649,6345
7751,1463,1244,1333,1481,6345,10391,14649,6345
8117,1466,1310,1334,1477,6345,10391,14649,6345
8087,1463,1248,1366,1469,6345,10391,14649,6345
7751,1469,1274,1330,1480,6345,10391,14649,6345
8117,1466,1235,1366,1477,6345,10391,14649,6345
8117,1466,1281,1324,1470,6345,10391,14649,6345
7751,1461,1277,1370,1483,6345,10391,14649,6345
8117,1465,1242,1369,1472,6345,10391,14649,6345
8117,1467,1274,1368,1472,6345,10391,14649,6345
8117,1467,1272,1331,1477,6345,10391,14649,6345
7751,1460,1289,1374,1483,6345,10391,14649,6345
8117,1463,1278,1293,1471,6345,10391,14649,6345
8117,1463,1277,1375,1480,6345,10391,14649,6345
7751,1466,1244,1343,1478,6345,10391,14649,6345
8117,1466,1314,1381,1472,6345,10391,14649,6345
8117,1468,1250,1378,1482,6345,10391,14649,6345
7751,1464,1316,1347,1481,6345,10391,14649,6345
8117,1467,1248,1380,1474,6345,10391,14649,6345
8117,1465,1283,1385,1482,6345,10391,14649,6345
7751,1469,1250,1351,1478,6345,10391,14649,6345
8117,1468,1260,1380,1470,6345,10391,14649,6345
8087,1469,1283,1381,1466,6345,10391,14649,6345
7751,1464,1281,1340,1483,6345,10391,14649,6345
8117,1464,1293,1384,1474,6345,10391,14649,6345
8117,1466,1277,1311,1471,6345,10391,14649,6345
8117,1467,1280,1382,1477,6345,10391,14649,6345
7751,1470,1248,1345,1477,6345,10391,14649,6345
8117,1467,1284,1383,1469,6345,10391,14649,6345
8117,1471,1249,1381,1475,6345,10391,14649,6345
7751,1459,1323,1350,1479,6345,10391,14649,6345
8117,1463,1241,1377,1470,6345,10391,14649,6345
8117,1460,1283,1388,1478,6345,10391,14649,6345
7751,1459,1248,1348,1473,6345,10391,14649,6345
8117,1467,1259,1383,1471,6345,10391,14649,6345
8117,1461,1287,1387,1480,6345,10391,14649,6345
7751,1460,1320,1353,1477,6345,10391,14649,6345
8117,1470,1255,1393,1473,6345,10391,14649,6345
8117,1469,1291,1319,1468,6345,10391,14649,6345
7751,1466,1260,1393,1477,6345,10391,14649,6345
8117,1465,1264,1380,1474,6345,10391,14649,6345
8117,1468,1289,1395,1471,6345,10391,14649,6345
7751,1473,1255,1397,1475,6345,10391,14649,6345
8117,1468,1320,1372,1471,6345,10391,14649,6345
8087,1462,1263,1384,1472,6345,10391,14649,6345
8117,1465,1290,1400,1482,6345,10391,14649,6345
7751,1466,1260,1364,1475,6345,10391,14649,6345
8117,1466,1276,1406,1471,6345,10391,14649,6345
7843,1465,1267,1395,1478,6345,10363,14541,6345
8117,1468,1307,1242,1474,6345,10363,14541,6345
8117,1461,1243,1264,1467,6345,10363,14541,6345
7751,1462,1303,1286,1480,6345,10363,14541,6345
8117,1469,1232,1247,1472,6345,10363,14541,6345
8117,1464,1240,1282,1470,6345,10363,14541,6345
7751,1464,1268,1248,1482,6345,10363,14541,6345
8117,1466,1314,1253,1473,6345,10363,14541,6345
8087,1465,1263,1283,1470,6345,10363,14541,6345
8117,1464,1274,1214,1478,6345,10363,14541,6345
7751,1466,1234,1287,1477,6345,10363,14541,6345
8117,1467,1244,1210,1474,6345,10363,14541,6345
8117,1469,1274,1279,1479,6345,10363,14541,6345
7751,1461,1237,1280,1475,6345,10363,14541,6345
8117,1464,1306,1251,1470,6345,10363,14541,6345
8117,1457,1249,1276,1479,6345,10363,14541,6345
7751,1464,1302,1286,1473,6345,10363,14541,6345
8117,1466,1232,1246,1473,6345,10363,14541,6345
8117,1466,1241,1284,1469,6345,10363,14541,6345
7751,1462,1235,1245,1481,6345,10363,14541,6345
8117,1465,1307,1244,1475,6345,10363,14541,6345
8117,1463,1233,1284,1470,6345,10363,14541,6345
7751,1467,1269,1247,1480,6345,10363,14541,6345
8117,1467,1228,1276,1469,6345,10363,14541,6345
8117,1466,1265,1242,1466,6345,10363,14541,6345
7751,1465,1273,1286,1482,6345,10363,14541,6345
8117,1464,1242,1286,1470,6345,10363,14541,6345
8087,1460,1306,1291,1471,6345,10363,14541,6345
8117,1464,1254,1278,1479,6345,10363,14541,6345
7751,1462,1310,1295,1473,6345,10363,14541,6345
8117,1466,1245,1259,1474,6345,10363,14541,6345
8117,1465,1250,1297,1478,6345,10363,14541,6345
7751,1461,1248,1259,1481,6345,10363,14541,6345
8117,1459,1317,1260,1471,6345,10363,14541,6345
8117,1469,1246,1292,1471,6345,10363,14541,6345
7751,1467,1315,1266,1475,6345,10363,14541,6345
8117,1468,1247,1302,1476,6345,10363,14541,6345
8117,1465,1284,1264,1470,6345,10363,14541,6345
7751,1464,1282,1270,1483,6345,10363,14541,6345
8117,1464,1250,1310,1475,6345,10363,14541,6345
8117,1469,1284,1306,1472,6345,10363,14541,6345
7751,1454,1286,1237,1483,6345,10363,14541,6345
8117,1465,1294,1316,1476,6345,10363,14541,6345
8117,1469,1286,1243,1469,6345,10363,14541,6345
8117,1465,1288,1320,1477,6345,10363,14541,6345
7751,1464,1256,1282,1481,6345,10363,14541,6345
8087,1465,1334,1284,1470,6345,10363,14541,6345
8117,1469,1262,1326,1477,6345,10363,14541,6345
7751,1462,1332,1289,1476,6345,10363,14541,6345
8117,1461,1258,1325,1472,6345,10363,14541,6345
8117,1464,1297,1286,1466,6345,10363,14541,6345
7751,1464,1272,1293,1478,6345,10363,14541,6345
8117,1465,1269,1324,1476,6345,10363,14541,6345
8117,1466,1296,1320,1465,6345,10363,14541,6345
7751,1465,1295,1286,1479,6345,10363,14541,6345
8117,1463,1304,1328,1468,6345,10363,14541,6345
8117,1463,1297,1248,1466,6345,10363,14541,6345
7751,1464,1295,1325,1480,6345,10363,14541,6345
8117,1462,1259,1292,1476,6345,10363,14541,6345
8117,1466,1294,1329,1473,6345,10363,14541,6345
8117,1471,1258,1320,1477,6345,10363,14541,6345
7751,1458,1329,1298,1478,6345,10363,14541,6345
8117,1467,1274,1311,1473,6345,10363,14541,6345
8117,1467,1294,1328,1476,6345,10363,14541,6345
7751,1469,1263,1294,1474,6345,10363,14541,6345
8117,1462,1278,1327,1474,6345,10363,14541,6345
8117,1461,1300,1327,1480,6345,10363,14541,6345
7751,1466,1329,1292,1479,6345,10363,14541,6345
8087,1467,1304,1324,1470,6345,10363,14541,6345
8117,1466,1294,1250,1471,6345,10363,14541,6345
7751,1466,1292,1319,1474,6345,10363,14541,6345
8117,1462,1255,1292,1473,6345,10363,14541,6345
8117,1461,1291,1323,1470,6345,10363,14541,6345
7751,1476,1255,1320,1480,6345,10363,14541,6345
8117,1464,1320,1288,1473,6345,10363,14541,6345
8117,1469,1270,1311,1471,6345,10363,14541,6345
8117,1458,1285,1332,1472,6345,10363,14541,6345
7751,1464,1255,1284,1476,6345,10363,14541,6345
8117,1468,1264,1334,1472,6345,10363,14541,6345
8117,1458,1288,1325,1474,6345,10363,14541,6345
7751,1468,1324,1289,1471,6345,10363,14541,6345
8117,1458,1255,1328,1467,6345,10363,14541,6345
8117,1462,1290,1252,1479,6345,10363,14541,6345
7751,1470,1257,1325,1474,6345,10363,14541,6345
8117,1465,1258,1327,1471,6345,10363,14541,6345
8117,1469,1293,1328,1476,6345,10363,14541,6345
7751,1464,1262,1323,1476,6345,10363,14541,6345
8087,1468,1317,1290,1471,6345,10363,14541,6345
8117,1464,1269,1311,1464,6345,10363,14541,6345
7751,1465,1279,1332,1478,6345,10363,14541,6345
8117,1465,1244,1289,1469,6345,10363,14541,6345
8117,1466,1260,1332,1469,6345,10363,14541,6345
8117,1461,1284,1329,1475,6345,10363,14541,6345
7751,1467,1324,1290,1471,6345,10363,14541,6345
8117,1467,1247,1329,1469,6345,10363,14541,6345
8117,1466,1291,1255,1481,6345,10363,14541,6345
7751,1460,1251,1327,1475,6345,10363,14541,6345
8117,1469,1256,1328,1472,6345,10363,14541,6345
8117,1465,1291,1334,1477,6345,10363,14541,6345
7751,1472,1261,1331,1477,6345,10363,14541,6345
8117,1463,1320,1310,1475,6345,10363,14541,6345
8117,1460,1292,1262,1479,6345,10363,14541,6345
7751,1469,1257,1337,1476,6345,10363,14541,6345
8117,1466,1255,1310,1471,6345,10363,14541,6345
8117,1469,1295,1342,1462,6345,10363,14541,6345
7751,1465,1262,1318,1479,6345,10363,14541,6345
8087,1460,1334,1307,1474,6345,10363,14541,6345
8117,1465,1260,1348,1469,6345,10363,14541,6345
8117,1469,1297,1270,1476,6345,10363,14541,6345
7751,1466,1262,1343,1475,6345,10363,14541,6345
8117,1470,1291,1348,1467,6345,10363,14541,6345
8117,1465,1295,1341,1476,6345,10363,14541,6345
7751,1466,1272,1344,1472,6345,10363,14541,6345
8117,1461,1295,1350,1472,6345,10363,14541,6345
8117,1469,1296,1276,1473,6345,10363,14541,6345
7751,1466,1262,1342,1472,6345,10363,14541,6345
8117,1461,1262,1312,1472,6345,10363,14541,6345
8117,1463,1304,1357,1476,6345,10363,14541,6345
7751,1469,1267,1322,1477,6345,10363,14541,6345
8117,1466,1329,1313,1475,6345,10363,14541,6345
8117,1462,1265,1349,1465,6345,10363,14541,6345
7751,1466,1335,1322,1471,6345,10363,14541,6345
8117,1468,1272,1344,1472,6345,10363,14541,6345
8117,1466,1302,1355,1470,6345,10363,14541,6345
7751,1463,1298,1317,1481,6345,10363,14541,6345
8117,1466,1286,1341,1476,6345,10363,14541,6345
8209,1461,1263,1342,1481,6345,10311,14466,6345
7751,1467,1257,1214,1477,6345,10311,14466,6345
8117,1468,1202,1233,1476,6345,10311,14466,6345
8117,1468,1220,1249,1474,6345,10311,14466,6345
7751,1464,1188,1215,1479,6345,10311,14466,6345
8117,1467,1201,1248,1471,6345,10311,14466,6345
8117,1461,1221,1253,1483,6345,10311,14466,6345
7751,1465,1262,1218,1476,6345,10311,14466,6345
8117,1464,1193,1259,1469,6345,10311,14466,6345
8117,1469,1227,1191,1481,6345,10311,14466,6345
7751,1465,1190,1260,1481,6345,10311,14466,6345
8117,1464,1196,1263,1471,6345,10311,14466,6345
8117,1467,1231,1262,1466,6345,10311,14466,6345
7751,1469,1198,1256,1475,6345,10311,14466,6345
8117,1465,1260,1242,1472,6345,10311,14466,6345
8117,1473,1231,1182,1470,6345,10311,14466,6345
7751,1466,1194,1261,1480,6345,10311,14466,6345
8117,1464,1193,1222,1473,6345,10311,14466,6345
8117,1469,1226,1265,1466,6345,10311,14466,6345
7751,1467,1196,1262,1483,6345,10311,14466,6345
8087,1463,1272,1231,1475,6345,10311,14466,6345
8117,1467,1204,1271,1470,6345,10311,14466,6345
8117,1466,1232,1203,1476,6345,10311,14466,6345
7751,1460,1204,1276,1475,6345,10311,14466,6345
8117,1466,1201,1279,1470,6345,10311,14466,6345
8117,1460,1242,1277,1480,6345,10311,14466,6345
7751,1466,1211,1286,1478,6345,10311,14466,6345
8117,1468,1272,1262,1471,6345,10311,14466,6345
8117,1469,1244,1208,1467,6345,10311,14466,6345
7751,1467,1206,1291,1481,6345,10311,14466,6345
8117,1471,1204,1252,1475,6345,10311,14466,6345
8117,1466,1241,1300,1469,6345,10311,14466,6345
7751,1473,1202,1262,1479,6345,10311,14466,6345
8117,1464,1278,1260,1473,6345,10311,14466,6345
8117,1467,1212,1291,1471,6345,10311,14466,6345
7751,1469,1252,1232,1484,6345,10311,14466,6345
8117,1467,1216,1291,1476,6345,10311,14466,6345
8117,1467,1254,1303,1470,6345,10311,14466,6345
8117,1467,1254,1311,1475,6345,10311,14466,6345
7751,1460,1248,1302,1473,6345,10311,14466,6345
8117,1464,1254,1311,1467,6345,10311,14466,6345
8117,1460,1260,1235,1478,6345,10311,14466,6345
7751,1471,1226,1308,1473,6345,10311,14466,6345
8117,1461,1219,1235,1470,6345,10311,14466,6345
8117,1465,1260,1305,1478,6345,10311,14466,6345
7751,1469,1225,1308,1475,6345,10311,14466,6345
8117,1468,1289,1271,1471,6345,10311,14466,6345
8117,1467,1220,1304,1480,6345,10311,14466,6345
7751,1471,1290,1290,1476,6345,10311,14466,6345
8117,1462,1217,1273,1468,6345,10311,14466,6345
8117,1464,1219,1308,1468,6345,10311,14466,6345
7751,1470,1219,1268,1479,6345,10311,14466,6345
8117,1462,1289,1269,1470,6345,10311,14466,6345
8117,1466,1217,1305,1470,6345,10311,14466,6345
7751,1465,1252,1273,1484,6345,10311,14466,6345
8117,1465,1218,1305,1470,6345,10311,14466,6345
8117,1460,1252,1241,1470,6345,10311,14466,6345
7751,1463,1254,1306,1481,6345,10311,14466,6345
8117,1466,1216,1308,1476,6345,10311,14466,6345
8117,1468,1250,1307,1470,6345,10311,14466,6345
8117,1467,1252,1281,1474,6345,10311,14466,6345
7751,1461,1279,1303,1476,6345,10311,14466,6345
8117,1466,1244,1228,1471,6345,10311,14466,6345
8117,1466,1225,1300,1477,6345,10311,14466,6345
7751,1465,1211,1264,1474,6345,10311,14466,6345
8117,1471,1285,1301,1470,6345,10311,14466,6345
8117,1460,1207,1298,1481,6345,10311,14466,6345
7751,1464,1279,1263,1478,6345,10311,14466,6345
8117,1466,1205,1299,1473,6345,10311,14466,6345
8117,1461,1241,1264,1480,6345,10311,14466,6345
7751,1461,1207,1270,1479,6345,10311,14466,6345
8117,1463,1215,1308,1471,6345,10311,14466,6345
8117,1463,1245,1303,1475,6345,10311,14466,6345
7751,1467,1290,1266,1478,6345,10311,14466,6345
8117,1466,1205,1302,1475,6345,10311,14466,6345
8117,1469,1242,1220,1463,6345,10311,14466,6345
7751,1469,1239,1299,1479,6345,10311,14466,6345
8117,1466,1200,1264,1469,6345,10311,14466,6345
8117,1463,1234,1295,1469,6345,10311,14466,6345
7751,1461,1202,1286,1479,6345,10311,14466,6345
8117,1461,1267,1255,1474,6345,10311,14466,6345
8117,1460,1238,1276,1466,6345,10311,14466,6345
8117,1465,1231,1292,1475,6345,10311,14466,6345
7751,1464,1202,1261,1475,6345,10311,14466,6345
8117,1468,1214,1303,1470,6345,10311,14466,6345
8117,1463,1238,1305,1475,6345,10311,14466,6345
7751,1466,1280,1271,1472,6345,10311,14466,6345
8117,1466,1207,1308,1469,6345,10311,14466,6345
8117,1469,1248,1235,1475,6345,10311,14466,6345
7751,1463,1216,1313,1477,6345,10311,14466,6345
8117,1463,1220,1316,1466,6345,10311,14466,6345
8117,1466,1248,1316,1472,6345,10311,14466,6345
7751,1469,1222,1313,1476,6345,10311,14466,6345
8117,1469,1285,1295,1469,6345,10311,14466,6345
8117,1469,1249,1242,1465,6345,10311,14466,6345
7751,1462,1214,1317,1480,6345,10311,14466,6345
8117,1465,1213,1283,1470,6345,10311,14466,6345
8117,1470,1252,1319,1471,6345,10311,14466,6345
7751,1466,1219,1296,1484,6345,10311,14466,6345
8117,1465,1293,1285,1473,6345,10311,14466,6345
8117,1458,1221,1323,1469,6345,10311,14466,6345
7751,1461,1256,1257,1477,6345,10311,14466,6345
8117,1473,1225,1317,1476,6345,10311,14466,6345
8117,1458,1249,1331,1467,6345,10311,14466,6345
8117,1467,1259,1329,1475,6345,10311,14466,6345
7751,1466,1254,1319,1475,6345,10311,14466,6345
8117,1467,1253,1332,1472,6345,10311,14466,6345
8117,1463,1257,1260,1479,6345,10311,14466,6345
7751,1466,1230,1334,1474,6345,10311,14466,6345
8117,1466,1226,1257,1471,6345,10311,14466,6345
8117,1466,1266,1335,1477,6345,10311,14466,6345
7751,1470,1229,1334,1478,6345,10311,14466,6345
8117,1467,1302,1300,1470,6345,10311,14466,6345
8117,1471,1235,1332,1481,6345,10311,14466,6345
7751,1469,1301,1320,1476,6345,10311,14466,6345
8117,1467,1227,1299,1470,6345,10311,14466,6345
8117,1460,1232,1339,1468,6345,10311,14466,6345
7751,1471,1237,1302,1479,6345,10311,14466,6345
8117,1468,1301,1302,1475,6345,10311,14466,6345
8117,1466,1233,1341,1471,6345,10311,14466,6345
7751,1466,1266,1304,1481,6345,10311,14466,6345
8117,1468,1227,1333,1472,6345,10311,14466,6345
8117,1466,1268,1282,1464,6345,10311,14466,6345
7751,1464,1270,1346,1480,6345,10311,14466,6345
8117,1464,1240,1342,1474,6345,10311,14466,6345
8209,1467,1242,1348,1481,6345,10307,14410,6345
7751,1463,1311,1239,1478,6345,10307,14410,6345
8117,1472,1239,1275,1474,6345,10307,14410,6345
8117,1466,1274,1212,1481,6345,10307,14410,6345
7751,1464,1239,1260,1481,6345,10307,14410,6345
8117,1468,1246,1273,1472,6345,10307,14410,6345
8117,1461,1271,1277,1471,6345,10307,14410,6345
7751,1467,1311,1267,1477,6345,10307,14410,6345
8117,1468,1294,1280,1474,6345,10307,14410,6345
8117,1461,1279,1204,1473,6345,10307,14410,6345
7751,1462,1258,1286,1481,6345,10307,14410,6345
8117,1463,1248,1247,1476,6345,10307,14410,6345
8117,1467,1283,1285,1470,6345,10307,14410,6345
7751,1461,1250,1293,1482,6345,10307,14410,6345
8117,1464,1331,1254,1475,6345,10307,14410,6345
8117,1469,1256,1284,1469,6345,10307,14410,6345
8117,1466,1286,1253,1478,6345,10307,14410,6345
7751,1461,1258,1251,1478,6345,10307,14410,6345
8117,1469,1262,1290,1471,6345,10307,14410,6345
8117,1467,1294,1285,1474,6345,10307,14410,6345
7751,1473,1330,1255,1472,6345,10307,14410,6345
8117,1466,1255,1294,1472,6345,10307,14410,6345
8117,1463,1296,1218,1476,6345,10307,14410,6345
7751,1466,1257,1293,1479,6345,10307,14410,6345
8117,1465,1256,1266,1473,6345,10307,14410,6345
8117,1461,1299,1296,1482,6345,10307,14410,6345
7751,1466,1272,1293,1476,6345,10307,14410,6345
8117,1467,1330,1268,1474,6345,10307,14410,6345
8117,1467,1297,1264,1469,6345,10307,14410,6345
7751,1466,1318,1298,1478,6345,10307,14410,6345
8117,1467,1263,1267,1471,6345,10307,14410,6345
8117,1461,1283,1307,1465,6345,10307,14410,6345
7751,1461,1305,1274,1479,6345,10307,14410,6345
8117,1464,1346,1272,1474,6345,10307,14410,6345
8117,1468,1282,1302,1467,6345,10307,14410,6345
7751,1461,1315,1237,1482,6345,10307,14410,6345
8117,1461,1283,1298,1472,6345,10307,14410,6345
8117,1465,1317,1302,1471,6345,10307,14410,6345
8117,1473,1322,1307,1477,6345,10307,14410,6345
7751,1463,1291,1303,1477,6345,10307,14410,6345
8117,1467,1313,1302,1470,6345,10307,14410,6345
8117,1466,1317,1227,1478,6345,10307,14410,6345
7751,1465,1281,1302,1474,6345,10307,14410,6345
8117,1463,1277,1227,1472,6345,10307,14410,6345
8117,1463,1319,1304,1478,6345,10307,14410,6345
7751,1468,1277,1281,1475,6345,10307,14410,6345
8117,1465,1350,1273,1470,6345,10307,14410,6345
8117,1463,1282,1308,1479,6345,10307,14410,6345
7751,1463,1354,1277,1478,6345,10307,14410,6345
8117,1466,1277,1292,1472,6345,10307,14410,6345
8117,1467,1309,1311,1470,6345,10307,14410,6345
7751,1464,1278,1270,1479,6345,10307,14410,6345
8117,1468,1347,1297,1476,6345,10307,14410,6345
8117,1464,1307,1301,1475,6345,10307,14410,6345
7751,1467,1313,1265,1483,6345,10307,14410,6345
8117,1466,1271,1305,1473,6345,10307,14410,6345
8117,1463,1312,1235,1471,6345,10307,14410,6345
7751,1473,1309,1302,1478,6345,10307,14410,6345
8117,1463,1277,1305,1471,6345,10307,14410,6345
8117,1464,1312,1312,1468,6345,10307,14410,6345
8117,1468,1280,1302,1477,6345,10307,14410,6345
7751,1464,1345,1308,1473,6345,10307,14410,6345
8117,1465,1314,1235,1472,6345,10307,14410,6345
8117,1466,1285,1316,1472,6345,10307,14410,6345
7751,1469,1280,1277,1473,6345,10307,14410,6345
8117,1467,1353,1313,1472,6345,10307,14410,6345
8117,1465,1283,1313,1479,6345,10307,14410,6345
7751,1461,1358,1282,1478,6345,10307,14410,6345
8117,1467,1285,1311,1472,6345,10307,14410,6345
8117,1464,1321,1251,1482,6345,10307,14410,6345
7751,1465,1286,1281,1481,6345,10307,14410,6345
8117,1467,1293,1312,1475,6345,10307,14410,6345
8117,1466,1320,1317,1472,6345,10307,14410,6345
7751,1466,1356,1297,1480,6345,10307,14410,6345
8117,1466,1342,1316,1476,6345,10307,14410,6345
8117,1469,1326,1241,1470,6345,10307,14410,6345
7751,1471,1302,1321,1480,6345,10307,14410,6345
8117,1466,1293,1280,1472,6345,10307,14410,6345
8117,1464,1330,1311,1466,6345,10307,14410,6345
7751,1468,1292,1314,1480,6345,10307,14410,6345
8117,1469,1359,1276,1475,6345,10307,14410,6345
8117,1471,1298,1307,1474,6345,10307,14410,6345
8117,1461,1328,1309,1477,6345,10307,14410,6345
7751,1466,1284,1278,1476,6345,10307,14410,6345
8117,1464,1295,1306,1470,6345,10307,14410,6345
8117,1469,1320,1302,1474,6345,10307,14410,6345
7751,1460,1358,1268,1474,6345,10307,14410,6345
8117,1461,1288,1311,1469,6345,10307,14410,6345
8117,1469,1326,1236,1474,6345,10307,14410,6345
7751,1466,1291,1310,1478,6345,10307,14410,6345
8117,1462,1290,1280,1466,6345,10307,14410,6345
8117,1464,1327,1313,1475,6345,10307,14410,6345
7751,1459,1300,1314,1478,6345,10307,14410,6345
8117,1463,1364,1281,1471,6345,10307,14410,6345
8117,1460,1333,1277,1469,6345,10307,14410,6345
7751,1463,1348,1320,1477,6345,10307,14410,6345
8117,1466,1304,1280,1474,6345,10307,14410,6345
8117,1465,1338,1316,1471,6345,10307,14410,6345
7751,1467,1330,1280,1482,6345,10307,14410,6345
8117,1467,1371,1279,1474,6345,10307,14410,6345
8117,1462,1301,1314,1470,6345,10307,14410,6345
7751,1460,1339,1250,1482,6345,10307,14410,6345
8117,1470,1301,1314,1475,6345,10307,14410,6345
8117,1467,1336,1314,1470,6345,10307,14410,6345
8117,1467,1338,1314,1478,6345,10307,14410,6345
7751,1468,1319,1316,1470,6345,10307,14410,6345
8117,1464,1340,1313,1469,6345,10307,14410,6345
8117,1461,1340,1245,1478,6345,10307,14410,6345
7751,1473,1305,1315,1473,6345,10307,14410,6345
8117,1464,1303,1245,1470,6345,10307,14410,6345
8117,1461,1341,1313,1477,6345,10307,14410,6345
7751,1469,1306,1287,1475,6345,10307,14410,6345
8117,1465,1374,1275,1471,6345,10307,14410,6345
8117,1471,1304,1308,1477,6345,10307,14410,6345
7751,1463,1374,1277,1476,6345,10307,14410,6345
8117,1469,1298,1270,1470,6345,10307,14410,6345
8117,1465,1319,1307,1469,6345,10307,14410,6345
7751,1469,1298,1269,1476,6345,10307,14410,6345
8117,1466,1370,1291,1469,6345,10307,14410,6345
8117,1469,1325,1309,1469,6345,10307,14410,6345
7751,1466,1333,1274,1483,6345,10307,14410,6345
8117,1461,1291,1305,1472,6345,10307,14410,6345
8117,1467,1324,1235,1471,6345,10307,14410,6345
7751,1469,1325,1299,1481,6345,10307,14410,6345
8117,1464,1291,1301,1471,6345,10307,14410,6345
8209,1471,1313,1303,1473,6345,10231,14349,6345
7751,1468,1264,1217,1472,6345,10231,14349,6345
8117,1464,1194,1258,1468,6345,10231,14349,6345
8117,1469,1232,1190,1477,6345,10231,14349,6345
7751,1466,1204,1252,1473,6345,10231,14349,6345
8117,1464,1201,1257,1474,6345,10231,14349,6345
8117,1465,1240,1263,1467,6345,10231,14349,6345
7751,1464,1212,1258,1474,6345,10231,14349,6345
8117,1464,1267,1262,1476,6345,10231,14349,6345
8117,1467,1240,1178,1468,6345,10231,14349,6345
7751,1460,1200,1261,1478,6345,10231,14349,6345
8117,1468,1193,1221,1468,6345,10231,14349,6345
8117,1462,1238,1260,1465,6345,10231,14349,6345
7751,1467,1193,1230,1479,6345,10231,14349,6345
8117,1464,1266,1221,1478,6345,10231,14349,6345
8117,1467,1202,1253,1469,6345,10231,14349,6345
8117,1467,1231,1192,1474,6345,10231,14349,6345
7751,1461,1196,1225,1474,6345,10231,14349,6345
8117,1464,1202,1262,1472,6345,10231,14349,6345
8117,1462,1240,1262,1479,6345,10231,14349,6345
7751,1461,1272,1242,1473,6345,10231,14349,6345
8117,1466,1232,1266,1470,6345,10231,14349,6345
8117,1466,1237,1190,1475,6345,10231,14349,6345
7751,1465,1201,1263,1473,6345,10231,14349,6345
8117,1464,1204,1231,1474,6345,10231,14349,6345
8117,1462,1237,1257,1476,6345,10231,14349,6345
7751,1464,1204,1260,1474,6345,10231,14349,6345
8117,1460,1269,1236,1471,6345,10231,14349,6345
8117,1466,1209,1250,1466,6345,10231,14349,6345
7751,1469,1276,1262,1477,6345,10231,14349,6345
8117,1462,1203,1227,1469,6345,10231,14349,6345
8117,1465,1208,1272,1469,6345,10231,14349,6345
7751,1463,1207,1224,1477,6345,10231,14349,6345
8117,1466,1280,1224,1470,6345,10231,14349,6345
8117,1473,1206,1255,1470,6345,10231,14349,6345
7751,1466,1241,1189,1484,6345,10231,14349,6345
8117,1467,1201,1259,1473,6345,10231,14349,6345
8117,1466,1233,1200,1468,6345,10231,14349,6345
8117,1462,1240,1255,1475,6345,10231,14349,6345
7751,1466,1204,1255,1476,6345,10231,14349,6345
8117,1464,1237,1255,1467,6345,10231,14349,6345
8117,1464,1230,1180,1478,6345,10231,14349,6345
7751,1466,1242,1254,1477,6345,10231,14349,6345
8117,1464,1236,1185,1469,6345,10231,14349,6345
8117,1465,1233,1250,1478,6345,10231,14349,6345
7751,1466,1197,1221,1477,6345,10231,14349,6345
8117,1467,1264,1216,1469,6345,10231,14349,6345
8117,1469,1195,1246,1481,6345,10231,14349,6345
7751,1469,1263,1217,1477,6345,10231,14349,6345
8117,1463,1189,1242,1473,6345,10231,14349,6345
8117,1461,1222,1242,1467,6345,10231,14349,6345
7751,1466,1185,1208,1480,6345,10231,14349,6345
8117,1466,1196,1241,1468,6345,10231,14349,6345
8117,1464,1220,1257,1467,6345,10231,14349,6345
7751,1469,1262,1215,1479,6345,10231,14349,6345
8117,1467,1184,1252,1476,6345,10231,14349,6345
8117,1463,1222,1175,1470,6345,10231,14349,6345
7751,1461,1217,1251,1484,6345,10231,14349,6345
8117,1462,1188,1222,1470,6345,10231,14349,6345
8117,1461,1223,1248,1470,6345,10231,14349,6345
8117,1462,1185,1240,1475,6345,10231,14349,6345
7751,1466,1258,1214,1477,6345,10231,14349,6345
8117,1467,1223,1171,1472,6345,10231,14349,6345
8117,1467,1189,1245,1479,6345,10231,14349,6345
7751,1465,1184,1206,1472,6345,10231,14349,6345
8117,1465,1222,1248,1469,6345,10231,14349,6345
8117,1463,1206,1243,1477,6345,10231,14349,6345
7751,1467,1253,1209,1478,6345,10231,14349,6345
8117,1461,1184,1250,1472,6345,10231,14349,6345
8117,1467,1219,1177,1479,6345,10231,14349,6345
7751,1459,1181,1234,1479,6345,10231,14349,6345
8117,1466,1187,1241,1477,6345,10231,14349,6345
8117,1476,1217,1244,1472,6345,10231,14349,6345
7751,1464,1195,1235,1478,6345,10231,14349,6345
8117,1464,1244,1241,1473,6345,10231,14349,6345
8117,1469,1216,1171,1466,6345,10231,14349,6345
7751,1461,1182,1238,1476,6345,10231,14349,6345
8117,1461,1179,1206,1470,6345,10231,14349,6345
8117,1463,1213,1244,1465,6345,10231,14349,6345
7751,1472,1181,1244,1480,6345,10231,14349,6345
8117,1466,1252,1207,1469,6345,10231,14349,6345
8117,1470,1180,1235,1471,6345,10231,14349,6345
8117,1470,1213,1187,1475,6345,10231,14349,6345
7751,1461,1179,1203,1474,6345,10231,14349,6345
8117,1466,1175,1235,1463,6345,10231,14349,6345
8117,1460,1211,1244,1478,6345,10231,14349,6345
7751,1461,1259,1207,1478,6345,10231,14349,6345
8117,1464,1204,1250,1471,6345,10231,14349,6345
8117,1466,1221,1177,1481,6345,10231,14349,6345
7751,1461,1183,1250,1473,6345,10231,14349,6345
8117,1466,1175,1208,1470,6345,10231,14349,6345
8117,1462,1216,1249,1476,6345,10231,14349,6345
7751,1463,1177,1247,1476,6345,10231,14349,6345
8117,1467,1247,1211,1470,6345,10231,14349,6345
8117,1461,1193,1230,1467,6345,10231,14349,6345
7751,1462,1242,1248,1475,6345,10231,14349,6345
8117,1463,1183,1219,1472,6345,10231,14349,6345
8117,1464,1190,1255,1467,6345,10231,14349,6345
7751,1456,1213,1216,1476,6345,10231,14349,6345
8117,1463,1255,1214,1472,6345,10231,14349,6345
8117,1468,1186,1253,1470,6345,10231,14349,6345
7751,1463,1220,1172,1485,6345,10231,14349,6345
8117,1466,1181,1246,1477,6345,10231,14349,6345
8117,1462,1214,1204,1468,6345,10231,14349,6345
8117,1463,1212,1251,1477,6345,10231,14349,6345
7751,1466,1183,1244,1476,6345,10231,14349,6345
8117,1464,1212,1246,1476,6345,10231,14349,6345
8117,1464,1214,1171,1477,6345,10231,14349,6345
7751,1465,1183,1249,1476,6345,10231,14349,6345
8117,1461,1179,1171,1467,6345,10231,14349,6345
8117,1469,1216,1247,1480,6345,10231,14349,6345
7751,1465,1180,1215,1474,6345,10231,14349,6345
8117,1469,1252,1216,1472,6345,10231,14349,6345
8117,1462,1190,1249,1479,6345,10231,14349,6345
7751,1471,1258,1221,1479,6345,10231,14349,6345
8117,1463,1181,1241,1470,6345,10231,14349,6345
8117,1469,1219,1254,1471,6345,10231,14349,6345
7751,1466,1181,1216,1475,6345,10231,14349,6345
8117,1467,1198,1246,1472,6345,10231,14349,6345
8117,1466,1214,1253,1471,6345,10231,14349,6345
7751,1470,1217,1222,1476,6345,10231,14349,6345
8117,1466,1183,1259,1468,6345,10231,14349,6345
8117,1469,1224,1191,1469,6345,10231,14349,6345
7751,1464,1222,1257,1478,6345,10231,14349,6345
8117,1471,1190,1242,1476,6345,10231,14349,6345
8209,1467,1219,1259,1472,6345,10241,14344,6345
7751,1460,1286,1223,1475,6345,10241,14344,6345
8117,1465,1216,1264,1468,6345,10241,14344,6345
8117,1466,1253,1193,1476,6345,10241,14344,6345
7751,1464,1214,1263,1474,6345,10241,14344,6345
8117,1464,1224,1242,1478,6345,10241,14344,6345
8117,1466,1252,1269,1479,6345,10241,14344,6345
7751,1464,1225,1259,1481,6345,10241,14344,6345
8117,1464,1287,1233,1472,6345,10241,14344,6345
8117,1460,1254,1183,1469,6345,10241,14344,6345
7751,1468,1223,1256,1477,6345,10241,14344,6345
8117,1468,1213,1218,1467,6345,10241,14344,6345
8117,1469,1249,1250,1471,6345,10241,14344,6345
7751,1466,1235,1224,1481,6345,10241,14344,6345
8117,1465,1287,1219,1475,6345,10241,14344,6345
8117,1466,1219,1260,1467,6345,10241,14344,6345
7751,1461,1250,1188,1477,6345,10241,14344,6345
8117,1469,1216,1241,1474,6345,10241,14344,6345
8117,1467,1246,1258,1474,6345,10241,14344,6345
8117,1461,1249,1255,1484,6345,10241,14344,6345
7751,1463,1230,1244,1476,6345,10241,14344,6345
8117,1468,1244,1255,1470,6345,10241,14344,6345
8117,1464,1246,1173,1477,6345,10241,14344,6345
7751,1466,1208,1249,1481,6345,10241,14344,6345
8117,1466,1208,1173,1471,6345,10241,14344,6345
8117,1467,1245,1247,1477,6345,10241,14344,6345
7751,1469,1205,1229,1480,6345,10241,14344,6345
8117,1467,1275,1214,1471,6345,10241,14344,6345
8117,1460,1214,1244,1481,6345,10241,14344,6345
7751,1470,1272,1222,1481,6345,10241,14344,6345
8117,1466,1207,1216,1471,6345,10241,14344,6345
8117,1461,1211,1254,1475,6345,10241,14344,6345
7751,1467,1208,1212,1480,6345,10241,14344,6345
