1437
1443
1439
1446
1440
1443
1440
1439
1444
1440
1442
1441
1442
1439
1439
1442
1434
1442
1438
1434
1439
1441
1437
1437
1437
1441
1438
1434
1444
1435
1441
1442
1442
1434
1451
1441
1444
1434
1435
1435
1444
1444
1445
1441
1444
1431
1444
1444
1436
1444
1438
1440
1433
1438
1441
1440
1435
1441
1437
1439
1428
1444
1442
1444
1433
1443
1431
1439
1432
1439
1446
1432
1429
1445
1443
1444
1434
1437
1442
1434
1438
1428
1438
1438
1434
1433
1439
1432
1439
1432
1434
1437
1439
1433
1439
1434
1436
1438
1439
1437
1446
1433
1443
14401434
1437
1441
1450
1434
1431
1431
1445
1438
1434
1441
1441
1440
1440
1441
1431
1432
1428
1445
1433
1439
1434
1433
1433
1434
1434
1439
1429
1430
1439
1434
1435
1439
1434
1440
1435
1439
1436
1434
1434
1440
1433
1444
1434
1438
1434
1438
1435
1428
1435
1436
1442
1438
1442
1435
1434
1437
1442
1431
1444
1434
1441
1431
1445
1442
1434
1440
1428
1440
1433
1438
1434
1437
1444
1432
1439
1439
1441
1438
1439
1435
1442
1431
1443
1434
1441
1433
1438
1439
1441
1428
1430
1431
1437
1435
1445
1428
1433
1439
1428
1443
1431
1439
1432
1432
1438
1428
1436
1434
1432
1439
1434
1441
1430
1433
1434
1445
1436
1435
1436
1434
1427
1428
1432
1435
1436
1434
1438
1428
1428
1438
1439
1441
1431
1442
1427
1442
1439
1436
1434
1434
1440
1438
1436
1442
1437
1431
1441
1432
1438
1435
1445
1434
1442
1428
1444
1436
1440
1438
1439
1439
1431
1439
1435
1444
1435
1439
1441
1446
1434
1444
1435
1439
1434
1442
1439
1426
1436
1432
1440
1433
1441
1431
1438
1437
1429
1442
1442
1439
1435
1443
1442
1437
1444
1433
1447
1442
1441
1440
1437
1432
1437
1430
1443
1442
1444
1439
1437
1428
1441
1436
1442
1435
1447
1434
1438
1428
1434
1436
1450
1434
1443
1437
1437
1438
1435
1446
1432
1441
1439
1440
1434
1433
1438
1442
1441
1440
1437
1439
1439
1446
1431
1442
1443
1447
1441
1438
1442
1445
1436
1446
1434
1444
1435
1443
1440
1435
1444
1433
1442
1435
1450
1441
1438
1444
1442
1446
1442
1450
1439
1447
1436
1440
1436
1439
1437
1445
1434
1442
1450
1436
1445
1434
1446
1439
1447
1446
1442
1436
1442
1437
1439
1434
1441
1443
1441
1434
1447
1439
1442
1440
1443
1436
1434
1444
1441
1448
1441
1442
1434
1439
1437
1440
1440
1442
1447
1434
1445
1442
1431
1441
1440
1442
1434
1442
1435
1447
1428
1443
1438
1446
1439
1442
1437
1439
1431
1443
1428
1441
1438
1445
1441
1440
1440
1436
1434
1439
1442
1434
1440
1435
1438
1441
1442
1431
1440
1435
1445
1430
1437
1436
1444
1435
1437
1434
1442
1437
1436
1442
1442
1435
1441
1434
1446
1445
1439
1440
1437
1434
1435
1441
1443
1438
1442
1439
1440
1439
1440
1442
1445
1437
1436
1442
1438
1435
1441
1440
1442
1450
1444
1439
1451
1439
1446
1436
1450
1433
1442
1438
1445
1441
1443
1435
1442
1444
1438
1444
1434
1442
1437
1439
1436
1439
1446
1441
1445
1432
1443
1440
1447
1440
1442
1444
1431
1443
1441
1444
1440
1441
1441
1447
1439
1445
1436
1447
1444
1442
1445
1441
1439
1441
1442
1438
1446
1439
1441
1445
1444
1454
1439
1453
1442
1442
1439
1450
1439
1446
1438
1447
1441
1444
1440
1451
1438
1444
1442
1446
1453
1443
1435
1444
1441
1440
1441
1440
1442
1441
1441
1446
1437
1445
1437
1445
1437
1444
1445
1439
1443
1439
1441
1444
1443
1442
1439
1436
1443
1436
1448
1439
1446
1439
1430
1434
1442
1445
1432
1447
1436
1442
1439
1446
1435
1445
1431
1440
1435
1431
1445
1441
1442
1439
1444
1430
1438
1441
1441
1445
1437
1443
1439
1439
1445
1442
1452
1431
1440
1442
1439
1428
1444
1437
1434
1434
1435
1437
1434
1447
1437
1438
1440
1434
1437
1437
1438
1440
1444
1428
1441
1441
1440
1442
1446
1441
1442
1441
1438
1443
1441
1445
1438
1438
1445
1447
1437
1441
1439
1443
1438
1445
1447
1436
1428
1439
1441
1446
1436
1442
1436
1441
1437
1434
1432
1442
1441
1440
1441
1434
1443
1441
1445
1438
1445
1438
1434
1438
1443
1431
1440
1443
1447
1437
1440
1439
1444
1443
1427
1439
1446
1442
1441
1439
1434
1440
1439
1444
1441
1449
1440
1439
1433
1445
1436
1443
1437
1447
1436
1443
1438
1445
1436
1439
1437
1441
1445
1447
1447
1445
1445
1444
1444
1441
1446
1433
1444
1439
1443
1441
1445
1441
1445
1446
1437
1446
1440
1446
1439
1438
1447
1439
1440
1442
1439
1438
1447
1446
1445
1442
1441
1447
1441
1450
1434
1446
1434
1441
1441
1445
1442
1450
1439
1444
1441
1441
1433
1444
1440
1448
1436
1440
1445
1444
1437
1443
1437
1441
1438
1443
1437
1441
1436
1444
1444
1441
1441
1450
1445
1434
1447
1446
1441
1440
1438
1441
1442
1438
1439
1439
1441
1442
1439
1440
1447
1446
1442
1439
1441
1434
1443
1437
1445
1446
1434
1434
1450
1436
1445
1439
1445
1438
1442
1434
1440
1439
1439
1441
1447
1443
1444
1434
1453
1442
1448
1434
1440
1440
1433
1441
1439
1439
1445
1441
1439
1434
1440
1439
1437
1437
1446
1441
1433
1438
1437
1436
1444
1441
1439
1437
1449
1446
1434
1440
1434
1445
1433
1442
1438
1435
1442
1431
1441
1434
1442
1435
1444
1438
1444
1436
1441
1434
1444
1441
1430
1434
1438
1441
1437
1443
1437
1448
1439
1439
1434
1440
1431
1440
1436
1442
1438
1437
1438
1445
1438
1438
1434
1436
1434
1440
1437
1445
1435
1440
1436
1439
1431
1440
1436
1441
1434
1441
1433
1434
1444
1438
1429
1442
1434
1435
1428
1442
1442
1429
1438
1430
1444
1434
1434
1440
1440
1429
1437
1441
1436
1444
1441
1442
1443
1437
1435
1433
1439
1432
1441
1434
1436
1434
1438
1428
1447
1430
1440
1438
1439
1428
1442
1433
1447
1437
1431
1431
1439
1428
1441
1434
1441
1441
1437
1438
1444
1434
1438
1429
1434
1433
1438
1439
1438
1438
1440
1430
1443
1438
1434
1434
1441
1442
1433
1439
1434
1428
1435
1454
1439
1434
1438
1442
1438
1439
1436
1437
1439
1445
1434
1441
1435
1440
1434
1434
1431
1431
1436
1443
1434
1440
1428
1441
1437
1442
1442
1439
1431
1439
1437
1428
1434
1433
1441
1440
1444
1434
1434
1439
1439
1433
1436
1435
1433
1441
1439
1440
1440
1440
1426
1444
1434
1437
1436
1441
1435
1438
1439
1439
1441
1437
1431
1438
1432
1442
1437
1437
1433
1443
1437
1438
1436
1433
1434
1431
1441
1434
1443
1434
1434
1439
1434
1441
1436
1444
1428
1441
1439
1440
1433
1438
1438
1436
1427
1444
1442
1426
1442
1432
1444
1436
1437
1435
1436
1434
1439
1436
1437
1434
1447
1446
1441
1439
1434
1434
1438
1442
1428
1442
1441
1437
1444
1440
1435
1441
1436
1448
1428
1434
1442
1440
1434
1439
1434
1437
1445
1434
1435
1437
1437
1440
1433
1441
1442
1440
1434
1436
1441
1447
1438
1441
1436
1434
1442
1439
1434
1435
1446
1442
1436
1438
1444
1444
1439
1447
1437
1437
1434
1431
1442
1435
1446
1434
1448
1433
1437
1428
1440
1438
1443
1433
1439
1438
1438
1434
1445
1441
1441
1438
1442
1434
1441
1445
1440
1443
1442
1437
1432
1432
1429
1435
1445
1437
1438
1434
1442
1437
1441
1435
1428
1442
1429
1437
1430
1450
1439
1439
1426
1443
1439
1447
1442
1443
1440
1441
1434
1438
1439
1437
1440
1438
1436
1439
1435
1444
1438
1442
1439
1445
1431
1439
1437
1445
1439
1434
1433
1440
1439
1438
1436
1437
1445
1433
1437
1441
1446
1435
1437
1439
1440
1436
1442
1441
1443
1439
1439
1440
1434
1427
1438
1442
1433
1443
1436
1438
1435
1441
1435
1444
1440
1441
1434
1444
1437
1447
1438
1439
1436
1438
1440
1439
1442
1435
1439
1439
1440
1432
1445
1439
1441
1437
1444
1442
1443
1440
1447
1441
1445
1442
1445
1443
1437
1447
1436
1444
1440
1450
1444
1441
1440
1443
1434
1439
1437
1450
1436
1444
1441
1447
1437
1444
1442
1447
1437
1447
1438
1447
1442
1445
1443
1443
1441
1453
1436
1441
1435
1445
1437
1442
1447
1439
1445
1440
1435
1443
1436
1448
1439
1442
1445
1434
1437
1439
1442
1428
1444
1450
1430
1443
1437
1448
1428
1439
1442
1440
1439
1441
1442
1437
1447
1439
1442
1434
1445
1443
1433
1445
1441
1440
1437
1441
1441
1446
1437
1440
1437
1445
1442
1447
1447
1439
1446
1445
1446
1437
1442
1444
1441
1447
1441
1450
1440
1442
1439
1443
1443
1437
1441
1439
1447
1435
1446
1438
1438
1437
1445
1442
1444
1434
1450
1439
1443
1438
1441
1434
1442
1442
1445
1442
1437
1440
1444
1437
1444
1440
1445
1447
1447
1433
1448
1436
1442
1445
1442
1449
1441
1439
1448
1441
1444
1441
1447
1451
1450
1433
1456
1441
1450
1442
1443
1447
1450
1445
1450
1445
1444
1444
1445
1445
1447
1442
1444
1444
1448
1442
1450
1446
1442
1442
1450
1442
1444
1444
1448
1439
1452
1447
1447
1439
1453
1445
1447
1446
1457
1437
1451
1447
1450
1442
1456
1442
1447
1450
1447
1453
1440
1446
1447
1443
1440
1450
1440
1449
1441
1447
1439
1447
1441
1440
1444
1450
1448
1445
1442
1436
1439
1437
1453
1442
1449
1438
1440
1453
1444
1442
1450
1438
1453
1442
1444
1446
1445
1439
1453
1441
1454
1439
1446
1446
1447
1453
1447
1447
1445
1445
1441
1442
1441
1443
1443
1446
1444
1449
1439
1446
1445
1444
1445
1444
1440
1440
1449
1442
1437
1444
1441
1451
1434
1453
1447
1445
1442
1451
1440
1446
1441
1450
1442
1441
1444
1453
1447
1445
1440
1446
1447
1439
1447
1444
1447
1436
1447
1433
1446
1441
1442
1437
1442
1456
1439
1447
1445
1442
1431
1439
1440
1449
1438
1453
1439
1441
1434
1444
1442
1445
1428
1442
1441
1436
1439
1439
1439
1441
1444
1441
1444
1441
1441
1445
1439
1442
1442
1444
1444
1446
1443
1442
1456
1447
1447
1435
1447
1441
1435
1443
1441
1444
1438
1447
1442
1450
1445
1441
1442
1446
1450
1439
1445
1435
1444
1438
1446
1442
1445
1442
1446
1442
1437
1443
1440
1447
1437
1444
1438
1442
1440
1435
1446
1431
1443
1436
1447
1442
1433
1436
1443
1445
1446
1441
1444
1435
1441
1437
1447
1436
1446
1441
1445
1441
1438
1439
1437
1448
1437
1442
1437
1441
1444
1439
1447
1441
1450
1442
1443
1446
1446
1439
1446
1442
1446
1437
1447
1446
1440
1445
1442
1450
1437
1447
1442
1436
1442
1434
1450
1446
1445
1439
1445
1441
1450
1443
1450
1445
1450
1442
1448
1450
1442
1450
1443
1447
1447
1445
1440
1449
1447
1440
1447
1451
1444
1450
1445
1440
1447
1444
1451
1441
1443
1443
1446
1453
1439
1440
1445
1456
1445
1456
1445
1445
1436
1446
1444
1449
1445
1447
1445
1444
1442
1452
1444
1451
1442
1455
1439
1445
1445
1453
1444
1446
1440
1443
1440
1445
1448
1434
1453
1444
1450
1441
1450
1442
1441
1438
1442
1445
1439
1446
1442
1442
1441
1438
1447
1437
1442
1439
1442
1447
1451
1442
1448
1442
1445
1440
1445
1434
1444
1439
1449
1442
1442
1435
1440
1442
1442
1436
1442
1437
1445
1443
1437
1440
1442
1447
1433
1442
1437
1447
1431
1441
1450
1439
1445
1439
1440
1434
1443
1436
1445
1445
1444
1437
1456
1444
1442
1437
1440
1439
1445
1439
1444
1439
1445
1438
1448
1441
1444
1438
1449
1439
1451
1437
1450
1439
1444
1437
1437
1441
1444
1437
1436
1447
1436
1450
1436
1445
1435
1445
1437
1442
1445
1439
1440
1437
1441
1445
1430
1445
1435
1441
1430
1439
1439
1437
1433
1447
1432
1450
1445
1443
1441
1437
1449
1435
1444
1439
1442
1436
1439
1432
1438
1430
1442
1437
1439
1446
1441
1437
1442
1437
1440
1436
1444
1438
1439
1441
1435
1437
1442
1434
1445
1442
1444
1433
1439
1439
1438
1439
1453
1434
1442
1442
1433
1444
1438
1442
1439
1450
1435
1439
1442
1434
1440
1436
1441
1436
1442
1442
1444
1434
1445
1435
1447
1441
1441
1432
1450
1435
1447
1434
1447
1450
1430
1434
1434
1440
1437
1442
1445
1443
1445
1438
1445
1434
1449
1442
1440
1443
1439
1444
1440
1445
1435
1450
1441
1442
1442
1446
1439
1443
1441
1440
1439
1442
1436
1442
1439
1442
1432
1445
1438
1440
1440
1448
1446
1442
1442
1445
1440
1443
1439
1439
1438
1453
1430
1442
1440
1440
1442
1442
1447
1439
1447
1444
1447
1434
1439
1434
1450
1445
1443
1430
1447
1441
1443
1441
1445
1443
1449
1437
1449
1437
1439
1439
1445
1438
1444
1442
1439
1438
1442
1441
1437
1439
1441
1446
1441
1444
1450
1450
1434
1444
1439
1452
1436
1447
1441
1431
1444
1444
1439
1442
1444
1432
1441
1443
1439
1440
1436
1445
1437
1445
1441
1445
1436
1447
1434
1441
1441
1439
1431
1441
1437
1447
1440
1439
1434
1445
1442
1434
1439
1436
1445
1437
1445
1435
1443
1440
1441
1439
1442
1442
1446
1441
1439
1441
1435
1444
1442
1442
1442
1444
1438
1444
1443
1445
1443
1442
1436
1454
1442
1444
1438
1444
1442
1444
1441
1440
1442
1432
1438
1437
1445
1441
1442
1431
1444
1439
1449
1436
1439
1439
1444
1446
1434
1438
1444
1445
1437
1443
1435
1442
1441
1441
1438
1445
1441
1446
1434
1436
1426
1434
1437
1447
1439
1442
1435
1444
1439
1441
1434
1439
1440
1444
1439
1439
1436
1450
1439
1446
1437
1442
1434
1434
1434
1437
1443
1440
1439
1453
1446
1447
1448
1431
1445
1442
1445
1438
1439
1434
1442
1442
1443
1442
1445
1437
1445
1441
1437
1441
1441
1447
1439
1443
1441
1440
1446
1447
1443
1441
1450
1442
1444
1439
1436
1447
1442
1445
1435
1445
1441
1450
1447
1441
1449
1449
1437
1437
1440
1440
1438
1444
1428
1444
1444
1445
1436
1450
1443
1438
1444
1442
1443
1446
1450
1441
1434
1434
1437
1442
1443
1445
1443
1447
1448
1448
1448
1440
1444
1442
1442
1441
1441
1448
1443
1447
1434
1447
1439
1446
1437
1437
1439
1439
1437
1442
1442
1442
1439
1440
1444
1443
1445
1440
1446
1452
1437
1447
1437
1442
1441
1445
1436
1431
1435
1440
1447
1439
1445
1447
1451
1439
1439
1439
1442
1439
1448
1442
1439
1436
1445
1433
1447
1432
1452
1441
1438
1440
1442
1440
1444
1442
1450
1437
1453
1434
1445
1435
1443
1439
1444
1439
1442
1435
1442
1442
1444
1443
1439
1434
1442
1446
1437
1447
1444
1446
1441
1450
1443
1437
1445
1442
1442
1433
1444
1439
1447
1442
1445
1433
1443
1442
1442
1434
1436
1442
1442
1438
1446
1441
1447
1434
1453
1445
1437
1442
1435
1445
1442
1434
1441
1440
1437
1445
1442
1447
1437
1446
1441
1441
1440
1444
1441
1446
1441
1450
1443
1443
1442
1449
1441
1450
1442
1439
1447
1447
1438
1440
1447
1444
1443
1451
1444
1441
1444
1439
1446
1447
1447
1443
1441
1447
1440
1441
1447
1439
1452
1436
1445
1440
1442
1446
1442
1437
1448
1445
1443
1440
1434
1444
1442
1439
1439
1447
1447
1442
1435
1445
1441
1453
1437
1441
1447
1439
1440
1438
1445
1439
1445
1443
1447
1447
1438
1450
1435
1446
1444
1437
1446
1439
1441
1440
1438
1442
1440
1439
1433
1438
1441
1439
1443
1443
1445
1441
1445
1434
1441
1447
1435
1453
1438
1450
1450
1449
1434
1444
1436
1441
1433
1448
1448
1442
1439
1438
1440
1438
1445
1444
1437
1431
1438
1440
1443
1438
1450
1439
1442
1438
1445
1435
1453
1442
1444
1442
1437
1441
1439
1442
1445
1439
1450
1437
1447
1440
1434
1446
1441
1447
1436
1447
1440
1444
1434
1450
1442
1449
1442
1442
1443
1443
1442
1434
1450
1439
1444
1445
1448
14441434
1435
1438
1434
1436
1437
1438
1435
1440
1439
1437
1444
1437
1432
1435
1442
1434
1440
1431
1440
1437
1437
1439
1439
1437
1433
1441
1431
1434
1436
1438
1441
1434
1436
1441
1434
1446
1431
1437
1431
1432
1438
1435
1440
1435
1437
1432
1437
1433
1442
1430
1436
1437
1444
1436
1430
1436
1436
1439
1439
1435
1434
1447
1439
1440
1441
1439
1441
1443
1437
1447
1433
1435
1439
1444
1441
1444
1430
1447
1441
1431
1446
1433
1436
1430
1440
1428
1438
1428
1432
1434
1439
1433
1438
1432
1437
1441
1435
1443
1441
1441
1432
1435
1431
1435
1434
1442
1431
1426
1432
1446
1434
1440
1431
1440
1428
1444
1428
1442
1434
1441
1435
1441
1437
1441
1430
1437
1439
1431
1439
1435
1442
1436
1434
1441
1431
1433
1438
1432
1439
1434
1440
1440
1437
1437
1437
1434
1438
1435
1433
1443
1436
1436
1437
1431
1442
1436
1442
1430
1438
1436
1442
1435
1444
1442
1433
1441
1440
1431
1440
1437
1441
1432
1441
1434
1431
1428
1428
1438
1439
1439
1430
1442
1435
1428
1436
1432
1440
1437
1445
1435
1434
1438
1433
1439
1436
1444
1435
1435
1435
1442
1435
1442
1435
1441
1441
1427
1437
1437
1425
1438
1439
1436
1447
1438
1440
1438
1431
1436
1439
1434
1436
1443
1444
1439
1434
1436
1428
1439
1435
1443
1443
1431
1441
1434
1445
1436
1440
1440
1434
1434
1431
1445
1434
1445
1436
1438
1430
1431
1436
1433
1442
1428
1437
1437
1434
1437
1441
1433
1439
1432
1444
1432
1438
1435
1442
1431
1441
1433
1441
1439
1433
1439
1434
1438
1433
1434
1436
1433
1433
1437
1433
1442
1433
1437
1431
1435
1437
1431
1435
1438
1434
1440
1444
1441
1430
1428
1437
1439
1441
1432
1437
1434
1439
1437
1426
1438
1432
1434
1433
1434
1435
1439
1431
1435
1430
1439
1433
1442
1441
1428
1443
1430
1446
1434
1440
1444
1439
1439
1433
1439
1433
1441
1425
1437
1441
1438
1438
1443
1434
1437
1436
1434
1433
1431
1428
1438
1441
1428
1444
1453
1436
1442
1434
1440
1434
1434
1435
1447
1433
1431
1441
1429
1434
1437
1441
1430
1441
1439
1434
1444
1434
1445
1436
1444
1428
1442
1436
1439
1432
1442
1433
1434
1442
1438
1433
1439
1433
1439
1433
1435
1445
1435
1438
1430
1437
1431
1434
1426
1432
1441
1433
1436
1431
1439
1434
1437
1434
1434
1439
1430
1437
1430
1445
1434
1439
1439
1431
1441
1438
1432
1431
1439
1437
1430
1439
1434
1434
1438
1441
1431
1434
1429
1440
1436
1443
1430
1437
1431
1441
1436
1436
1428
1439
1432
1438
1433
1434
1433
1436
1441
1439
1428
1443
1430
1437
1437
1436
1441
1428
1445
1435
1436
1428
1438
1433
1441
1432
1434
1434
1440
1437
1444
1438
1439
1436
1436
1428
1442
1432
1435
1435
1439
1436
1447
1430
1434
1440
1431
1434
1440
1440
1433
1432
1434
1437
1437
1429
1438
1430
1439
1427
1436
1427
1434
1428
1441
1436
1438
1430
1440
1438
1429
1437
1423
1437
1430
1440
1435
1434
1434
1434
1430
1440
1437
1434
1431
1435
1442
1429
1442
1433
1438
1433
1436
1434
1435
1437
1432
1437
1423
1438
1434
1445
1434
1431
1436
1438
1439
1433
1434
1431
1433
1439
1432
1437
1438
1445
1434
1432
1431
1431
1432
1441
1428
1437
1431
1436
1436
1428
1435
1436
1439
1429
1432
1431
1430
1441
1437
1440
1433
1441
1433
1428
1428
1434
1430
1439
1428
1442
1433
1428
1439
1428
1441
1428
1442
1438
1428
1429
1437
1428
1445
1428
1441
1435
1441
1432
1434
1432
1439
1436
1435
1428
1438
1438
1434
1434
1434
1428
1437
1430
1434
1445
1434
1432
1438
1431
1436
1432
1439
1442
1434
1433
1436
1428
1431
1431
1444
1431
1433
1428
1436
1431
1432
1443
1432
1438
1439
1428
1428
1431
1437
1435
1435
1434
1440
1432
1437
1426
1435
1433
1430
1427
1428
1434
1435
1438
1432
1439
1441
1441
1444
1431
1438
1433
1436
1437
1427
1436
1434
1432
1439
1423
1438
1429
1437
1428
1436
1432
1432
1427
1426
1438
1425
1428
1439
1428
1430
1436
1433
1430
1438
1434
1436
1431
1439
1432
1441
1438
1435
1435
1437
1428
1431
1434
1427
1427
1434
1436
1431
1426
1441
1433
1428
1445
1447
1441
1431
1434
1432
1434
1428
1434
1443
1432
1437
1431
1434
1435
1434
1434
1429
1439
1434
1434
1434
1437
1436
1440
1437
1436
1442
1431
1441
1441
1429
1432
1430
1440
1432
1442
1435
1442
1428
1437
1432
1441
1433
1441
1439
1440
1428
1434
1434
1433
1439
1434
1434
1439
1441
1438
1439
1430
1441
1428
1441
1428
1431
1437
1431
1444
1431
1431
1429
1440
1434
1432
1436
1442
1437
1438
1429
1428
1428
1438
1441
1429
1433
1428
1437
1430
1431
1441
1433
1429
1427
1428
1431
1437
1432
1432
1437
1437
1433
1438
1433
1440
1428
1442
1432
1436
1429
1441
1431
1430
1430
1433
1430
1437
1427
1435
1433
1440
1441
1444
1432
1435
1431
1434
1433
1434
1434
1439
1427
1437
1433
1441
1433
1438
1433
1439
1434
1431
1438
1436
1439
1439
1431
1441
1431
1444
1436
1439
1428
1434
1439
1434
1439
1433
1443
1438
1442
1431
1441
1438
1433
1446
1439
1438
1435
1442
1437
1442
1439
1442
1443
1450
1437
1440
1433
1442
1433
1442
1434
1442
1431
1450
1438
1434
1437
1428
1439
1431
1442
1437
1435
1425
1439
1439
1441
1438
1442
1433
1428
1441
1441
1430
1443
1428
1440
1431
1438
1439
1434
1439
1437
1441
1432
1434
1440
1426
1439
1428
1436
1432
1445
1431
1435
1436
1438
1442
1442
1438
1447
1436
1442
1434
1441
1435
1443
1434
1446
1444
1434
1430
1444
1438
1440
1430
1442
1445
1442
1442
1445
1439
1440
1439
1438
1450
1434
1443
1442
1442
1439
1446
1438
1438
1446
1446
1433
1442
1437
1450
1441
1438
1439
1440
1438
1439
1441
1437
1442
1439
1438
1434
1437
1437
1444
1434
1438
1433
1438
1437
1434
1439
1437
1442
1433
1436
1439
1433
1442
1436
1442
1433
1447
1431
1438
1428
1440
1430
1441
1439
1431
1453
1437
1430
1439
1431
1444
1437
1437
1434
1437
1441
1440
1436
1439
1433
1444
1444
1438
1433
1435
1427
1444
1432
1442
1427
1435
1434
1439
1430
1438
1431
1442
1431
1436
1434
1440
1438
1435
1431
1445
1439
1434
1434
1431
1431
1445
1437
1441
1431
1435
1433
1437
1439
1438
1441
1447
1428
1437
1441
1434
1442
1434
1439
1433
1438
1429
1428
1442
1437
1439
1435
1435
1434
1439
1436
1440
1435
1440
1436
1442
1438
1438
1439
1435
1444
1433
1442
1435
1442
1442
1431
1434
1427
1437
1440
1438
1443
1430
1442
1433
1440
1434
1441
1439
1441
1433
1439
1434
1442
1447
1437
1445
1434
1441
1442
1438
1442
1437
1444
1433
1439
1443
1439
1449
1437
1444
1441
1443
1437
1431
1439
1439
1437
1438
1445
1434
1444
1442
1441
1443
1436
1439
1436
1446
1439
1441
1432
1442
1436
1439
1434
1440
1439
1443
1427
1437
1433
1445
1436
1445
1437
1436
1438
1437
1441
1437
1436
1436
1447
1436
1441
1433
1440
1434
1441
1441
1443
1447
1441
1439
1432
1447
1434
1438
1434
1438
1440
1433
1441
1440
1448
1431
1430
1434
1441
1439
1445
1439
1437
1438
1437
1437
1440
1443
1437
1432
1442
1434
1438
1434
1436
1439
1435
1444
1434
1437
1432
1441
1428
1440
1436
1435
1434
1440
1439
1438
1432
1432
1443
1442
1442
1439
1443
1436
1431
1444
1433
1438
1439
1444
1436
1436
1444
1438
1433
1439
1443
1437
1445
1438
1439
1433
1443
1440
1442
1443
1442
1439
1437
1442
1439
1445
1441
1446
1437
1428
1439
1436
1444
1439
1445
1434
1440
1440
1427
1448
1440
1450
1436
1435
1436
1447
1440
1444
1440
1442
1439
1440
1434
1441
1437
1438
1437
1434
1437
1437
1442
1435
1441
1437
1442
1435
1436
1437
1438
1434
1447
1441
1438
1431
1428
1428
1430
1444
1434
1442
1435
1444
1434
1440
1428
1434
1437
1450
1435
1444
1436
1434
1430
1439
1434
1442
1440
1434
1434
1437
1437
1435
1437
1432
1431
1439
1442
1438
1429
1442
1439
1442
1431
1441
1434
1438
1434
1434
1439
1430
1440
1434
1444
1426
1438
1436
1445
1436
1446
1440
1437
1447
1434
1440
1445
1436
1440
1436
1437
1434
1440
1433
1443
1437
1444
1441
1446
1433
1441
1435
1442
1439
1444
1438
1426
1434
1437
1437
1447
1436
1442
1428
1444
1443
1444
1435
1445
1432
1440
1436
1443
1447
1441
1435
1445
1439
1445
1436
1445
1438
1441
1434
1439
1435
1439
1441
1432
1432
1437
1434
1440
1434
1440
1442
1444
1439
1438
1434
1439
1442
1438
1440
1438
1441
1437
1441
1438
1442
1441
1431
1435
1433
1433
1443
1444
1439
1438
1446
1434
1433
1439
1447
1436
1444
1439
1441
1442
1438
1439
1450
1432
1445
1439
1445
1435
1434
1441
1439
1443
1442
1428
1447
1441
1438
1440
1435
1440
1442
1441
1438
1440
1447
1441
1443
1440
1434
1437
1451
1445
1439
1439
1441
1442
1436
1445
1441
1450
1445
1446
1435
1443
1439
1447
1440
1438
1442
1436
1440
1434
1434
1435
1447
1432
1440
1436
1441
1441
1450
1437
1450
1437
1442
1445
1436
1445
1435
1442
1441
1444
1441
1437
1441
1441
1440
1438
1447
1435
1442
1445
1444
1442
1442
1445
1442
1440
1447
1436
1443
1439
1443
1442
1434
1444
1443
1439
1443
1435
1441
1441
1448
1440
1445
1445
1441
1438
1439
1450
1445
1446
1442
1447
1437
1447
1441
1441
1442
1447
1447
1440
1443
1445
1440
1448
1441
1450
1439
1441
1439
1441
1453
1439
1446
1439
1439
1447
1438
1445
1430
1450
1436
1442
1451
1442
1442
1448
1442
1441
1441
1450
1447
1446
1436
1443
1439
1444
1439
1450
1442
1439
1438
1442
1446
1443
1445
1441
1439
1444
1447
1441
1445
1440
1453
1433
1439
1439
1441
1447
1442
1442
1440
1448
1435
1435
1448
1438
1444
1444
1446
1442
1443
1436
1448
1439
1445
1447
1450
1443
1443
1439
1447
1441
1447
1441
1444
1447
1446
1447
1444
1450
1441
1445
1441
1450
1445
1439
1435
1447
1440
1456
1442
1448
1448
1437
1445
1447
1454
1438
1445
1445
1440
1444
1434
1458
1437
1449
1442
1446
1443
1442
1441
1450
1443
1451
1439
1446
1446
1439
1447
1445
1447
1439
1444
1443
1440
1441
1440
1442
1450
1441
1440
1439
1443
14391430
1420
1423
1428
1434
1427
1423
1425
1430
1427
1423
1428
1428
1429
1431
1432
1426
1423
1428
1426
1435
1427
1438
1429
1435
1430
1434
1429
1432
1429
1435
1433
1426
1435
1426
1432
1424
1431
1423
1434
1428
1433
1422
1433
1423
1431
1430
1423
1431
1434
1436
1426
1432
1434
1444
1426
1437
1427
1434
1428
1428
1428
1432
1428
1441
1426
1434
1418
1433
1434
1435
1432
1428
1431
1441
1436
1424
1443
1432
1428
1428
1427
1435
1428
1432
1430
1432
1434
1436
1439
1437
1434
1431
1444
1433
1431
1444
1444
1439
1446
1435
1442
1433
1447
1436
1446
1437
1447
1437
1443
1437
1441
1444
1438
1446
1434
1440
1438
1447
1434
1445
1435
1434
1439
1429
1440
1428
1437
1430
1437
1428
1435
1428
1436
1439
1434
1428
1447
1427
1440
1431
1433
1423
1434
1429
1432
1429
1435
1428
1436
1428
1441
1436
1432
1423
1439
1432
1426
1426
1423
1426
1434
1424
1426
1420
1433
1418
1428
1429
1432
1429
1434
1426
1430
1435
1432
1428
1438
1443
1443
1432
1439
1445
1436
1439
1434
1445
1438
1445
1450
1442
1431
1439
1433
1442
1434
1440
1440
1437
1446
1441
1450
1435
1442
1435
1440
1433
1445
1433
1431
1434
1443
1431
1428
1434
1429
1439
1430
1429
1425
1429
1418
1423
1425
1421
1426
1424
1431
1431
1424
1431
1424
1431
1426
1433
1431
1427
1424
1434
1426
1435
1436
1435
1440
1439
1453
1441
1457
1450
1453
1447
1447
1446
1437
1447
1438
1445
1433
1428
1421
1416
1415
1415
1417
1409
1409
1409
1408
1409
1412
1408
1415
1414
1409
1413
1412
1406
1408
1416
1417
1414
1418
1416
1428
1423
1415
1417
1417
1423
1435
1427
1432
1431
1429
1424
1429
1421
1420
1423
1420
1415
1421
1431
1430
1427
1432
1426
1423
1430
1441
1428
1439
1441
1447
1435
1441
1434
1440
1439
1444
1433
1445
1437
1443
1435
1444
1434
1445
1440
1441
1434
1439
1445
1434
1445
1434
1437
1426
1434
1435
1431
1429
1436
1429
1431
1418
1424
1425
1424
1429
1429
1426
1430
1420
1425
1428
1423
1434
1432
1440
1432
1441
1435
1447
1435
1442
1428
1432
1432
1434
1439
1434
1431
1428
1428
1430
1428
1428
1421
1423
1433
1422
1426
1419
1421
1426
1426
1430
1420
1428
1420
1423
1429
1427
1419
1423
1417
1417
1426
1432
1424
1434
1429
1441
1436
1430
1434
1436
1435
1429
1441
1432
1443
1432
1439
1434
1434
1441
1440
1436
1426
1439
1441
1437
1428
1441
1435
1437
1433
1440
1433
1441
1428
1434
1436
1431
1438
1432
1442
1434
1442
1434
1438
1436
1436
1430
1441
1431
1439
1430
1430
1428
1441
1434
1436
1435
1444
1428
1432
1443
1445
1426
1434
1429
1437
1445
1435
1437
1441
1433
1444
1434
1439
1437
1442
1437
1429
1436
1427
1437
1432
1434
1428
1435
1423
1433
1426
1429
1420
1427
1429
1428
1424
1432
1426
1428
1423
1426
1425
1433
1423
1438
1428
1438
1426
1430
1428
1432
1431
1428
1433
1434
1439
1430
1429
1430
1437
1431
1437
1431
1439
1420
1435
1432
1434
1431
1434
1434
1433
1428
1437
1442
1428
1432
1438
1438
1432
1439
1426
1427
1442
1431
1438
1429
1428
1432
1431
1428
1437
1428
1439
1441
1437
1433
1434
1428
1439
1423
1434
1426
1438
1429
1436
1428
1430
1426
1434
1426
1434
1425
1431
1428
1427
1428
1434
1421
1437
1428
1436
1432
1430
1438
1424
1435
1427
1433
1434
1438
1432
1435
1428
1434
1426
1437
1436
1430
1434
1427
1437
1428
1437
1426
1438
1427
1442
1428
1435
1438
1439
1439
1439
1425
1435
1436
1431
1433
1439
1439
1428
1433
1427
1436
1431
1433
1432
1431
1428
1434
1438
1435
1430
1438
1431
1432
1434
1437
1435
1438
1435
1438
1428
1441
1428
1434
1432
1438
1428
1434
1426
1434
1433
1434
1431
1435
1426
1433
1432
1423
1434
1425
1434
1428
1426
1428
1431
1435
1423
1435
1427
1437
1423
1434
1431
1423
1435
1423
1434
1429
1434
1433
1434
1428
1437
1429
1437
1428
1432
1437
1430
1423
1428
1424
1428
1427
1434
1427
1433
1426
1426
1426
1434
1433
1431
1431
1428
1439
1426
1439
1433
1441
1436
1437
1432
1435
1435
1444
1430
1442
1437
1441
1434
1448
1432
1440
1436
1444
1442
1442
1431
1442
1438
1439
1435
1435
1436
1433
1428
1434
1430
1427
1432
1430
1425
1425
1435
1426
1434
1426
1432
1421
1432
1423
1428
1424
1428
1425
1426
1431
1438
1425
1423
1437
1426
1434
1426
1441
1424
1431
1434
1426
1428
1428
1432
1428
1433
1438
1434
1436
1426
1431
1424
1439
1434
1434
1427
1433
1427
1442
1435
1445
1444
1428
1435
1440
1447
1431
1443
1437
1440
1428
1442
1436
1441
1431
1447
1439
1437
1448
1440
1445
1440
1453
1450
1457
1447
1453
1446
1456
1440
1456
1443
1453
1434
1440
1431
1433
1432
1436
1426
1428
1421
1423
1417
1422
1417
1411
1408
1409
1407
1404
1417
1405
1406
1417
1417
1414
1405
1406
1409
1406
1405
1406
1418
1408
1411
1420
1420
1427
1417
1420
1431
1426
1430
1428
1437
1423
1428
1423
1434
1423
1420
1434
1420
1428
1422
1421
1418
1429
1427
1431
1420
1438
1429
1440
1439
1430
1441
1433
1441
1434
1441
1433
1442
1445
1439
1444
1441
1447
1443
1447
1446
1440
1445
1444
1450
1437
1447
1446
1437
1437
1440
1439
1438
1432
1444
1435
1442
1441
1441
1441
1440
1431
1432
1434
1445
1436
1435
1439
1430
1435
1431
1436
1442
1435
1430
1438
1430
1444
1425
1428
1428
1431
1429
1434
1430
1428
1431
1431
1430
1424
1433
1428
1438
1427
1437
1428
1431
1432
1431
1424
1426
1426
1429
1428
1432
1428
1423
1431
1430
1428
1426
1438
1430
1428
1438
1423
1423
1428
1426
1433
1427
1424
1426
1432
1424
1429
1420
1431
1426
1435
1430
1436
1438
1435
1428
1428
1438
1433
1434
1424
1438
1423
1434
1431
1428
1438
1426
1436
1426
1437
1430
1429
1429
1434
1430
1438
1427
1428
1430
1428
1434
1427
1436
1426
1438
1429
1433
1431
1422
1438
1428
1430
1426
1431
1434
1431
1426
1434
1425
1429
1426
1431
1430
1427
1434
1433
1428
1428
1435
1434
1426
1425
1431
1428
1427
1430
1433
1426
1428
1435
1423
1438
1427
1431
1424
1441
1434
1432
1426
1436
1435
1428
1434
1435
1431
1432
1434
1428
1436
1428
1439
1441
1427
1432
1435
1431
1438
1431
1440
1428
1437
1429
1436
1428
1437
1427
1444
1428
1433
1433
1431
1442
1429
1438
1428
1432
1428
1430
1428
1434
1426
1434
1427
1438
1426
1434
1426
1439
1434
1436
1428
1438
1431
1433
1426
1426
1430
1423
1426
1428
1428
1423
1428
1427
1437
1426
1428
1428
1433
1439
1436
1439
1431
1439
1435
1440
1428
1430
1434
1426
1439
1426
1434
1436
1438
1434
1426
1442
1428
1428
1434
1434
1424
1439
1428
1445
1431
1441
1435
1442
1435
1441
1435
1444
1430
1431
1428
1428
1430
1432
1427
1426
1423
1431
1423
1432
1423
1427
1418
1415
1418
1425
1428
1420
1423
1419
1420
1431
1428
1431
1426
1431
1432
1431
1434
1430
1439
1427
1437
1439
1426
1441
1433
1439
1433
1442
1429
1439
1433
1435
1438
1438
1428
1434
1426
1428
1428
1426
1434
1422
1435
1427
1434
1428
1428
1427
1434
1424
1431
1431
1428
1427
1432
1428
1434
1424
1434
1432
1437
1429
1427
1437
1429
1434
1434
1439
1431
1435
1433
1440
1430
1439
1430
1441
1434
1434
1432
1427
1433
1428
1440
1432
1439
1431
1436
1428
1434
1429
1430
1428
1431
1426
1428
1430
1438
1436
1453
1442
1450
1446
1450
1447
1442
1453
1439
1448
1441
1452
1436
1434
1432
1433
1432
1428
1430
1428
1431
1429
1423
1423
1421
1424
1417
1418
1419
1411
1426
1419
1417
1426
1423
1428
1436
1432
1427
1438
1430
1436
1441
1442
1434
1448
1435
1439
1438
1428
1428
1431
1433
1428
1427
1430
1425
1426
1426
1431
1426
1435
1430
1431
1428
1432
1423
1428
1428
1441
1430
1439
1435
1442
1432
1439
1437
1440
1436
1444
1434
1438
1432
1438
1428
1444
1437
1441
1426
1438
1432
1429
1429
1432
1430
1439
1432
1427
1428
1433
1434
1421
1438
1426
1427
1427
1430
1427
1427
1433
1425
1434
1419
1419
1428
1428
1426
1431
1429
1432
1427
1429
1423
1424
1437
1428
1441
1425
1432
1426
1438
1428
1434
1428
1434
1437
1434
1432
1437
1434
1439
1431
1438
1429
1439
1440
1426
1432
1436
1438
1432
1437
1433
1442
1441
1441
1439
1433
1438
1441
1434
1434
1440
1435
1427
1439
1432
1444
1434
1439
1438
1442
1443
1437
1444
1436
1445
1436
1445
1438
1442
1434
1440
1431
1439
1428
1437
1434
1426
1439
1432
1428
1428
1439
1430
1438
1435
1439
1428
1436
1428
1441
1430
1439
1426
1437
1428
1434
1430
1431
1438
1431
1437
1431
1438
1427
1437
1435
1430
1435
1436
1432
1431
1439
1425
1432
1431
1424
1434
1418
1423
1431
1420
1426
1420
1418
1423
1424
1427
1423
1428
1423
1434
1427
1438
1426
1436
1427
1441
1434
1438
1428
1433
1429
1430
1435
1433
1431
1428
1433
1427
1434
1428
1433
1429
1434
1437
1431
1434
1434
1434
1432
1442
1440
1438
1433
1440
1430
1441
1438
1443
1433
1436
1428
1434
1431
1434
1431
1432
1436
1438
1447
1436
1450
1444
1451
1445
1444
1436
1447
1434
1444
1440
1439
1440
1426
1434
1427
1438
1427
1440
1433
1426
1416
1420
1442
1423
1439
1430
1429
1430
1431
1429
1427
1427
1431
1423
1424
1428
1431
1421
1428
1426
1426
1421
1423
1426
1418
1423
1428
1423
1426
1435
1425
1439
1424
1424
1440
1434
1438
1442
1441
1442
1434
1440
1438
1439
1442
1444
1434
1439
1439
1444
1433
1434
1434
1435
1435
1441
1435
1437
1428
1429
1434
1430
1426
1420
1424
1417
1417
1417
1418
1432
1417
1421
1433
1428
1438
1434
1450
1447
1447
1447
1444
1450
1440
1440
1445
1440
1435
1433
1434
1434
1428
1423
1431
1427
1428
1418
1417
1412
1415
1412
1411
1409
1415
1416
1417
1408
1412
1413
1406
1416
1417
1414
1411
1429
1415
1418
1423
1425
1422
1432
1426
1432
1424
1431
1426
1436
1447
1423
1443
1447
1454
1447
1448
1457
1457
1447
1456
1446
1456
1450
1445
1442
1453
1444
1445
1442
1443
1432
1441
1434
1428
1432
1426
1433
1425
1434
1427
1421
1432
1412
1419
1423
1430
1426
1428
1432
1426
1442
1440
1433
1436
1434
1444
1434
1430
1444
1437
1433
1430
1432
1423
1427
1434
1426
1434
1424
1432
1424
1422
1420
1427
1423
1430
1421
1427
1426
1430
1439
1431
1429
1426
1442
1428
1431
1437
1431
1423
1438
1430
1436
1433
1438
1429
1432
1438
1434
1436
1426
1431
1426
1430
1430
1426
1424
1432
1420
1429
1420
1422
1420
1423
1433
1423
1423
1422
1428
1426
1426
1429
1428
1438
1426
1438
1428
1432
1426
1434
1428
1426
1432
1417
1423
1441
1430
1428
1435
1427
1437
1426
1428
1439
1441
1432
1441
1431
1443
1429
1441
1439
1438
1431
1440
1433
1439
1431
1444
1430
1433
1439
1434
1431
1433
1436
1432
1426
1438
1434
1439
1433
1442
1437
1439
1436
1441
1433
1434
1426
1439
1429
1433
1437
1445
1430
1432
1435
1442
1429
1431
1440
1430
1440
1428
1439
1434
1432
1430
1426
1439
1433
1438
1428
1441
1433
1428
1439
1428
1434
1431
1443
1431
1436
1428
1436
1428
1437
1431
1431
1424
1435
1433
1433
1429
1437
1423
1429
1432
1433
1428
1423
1432
1428
1435
1427
1433
1428
1433
1437
1427
1436
1426
1442
1429
1428
1433
1430
1433
1432
1433
1428
1428
1436
1429
1439
1428
1442
1431
1440
1433
1443
1439
1443
1429
1443
1432
1447
1431
1445
1439
1444
1439
1441
1445
1445
1453
1445
1446
1443
1453
1445
1444
1440
1445
1441
1431
1439
1437
1439
1428
1427
1438
1438
1434
1423
1434
1436
1430
1428
1428
1428
1433
1421
1426
1427
1431
1426
1426
1432
1426
1422
1433
1421
1430
1426
1438
1440
1442
1450
1453
1461
1449
1453
1452
1451
1442
1449
1439
1441
1427
1434
1434
1428
1414
1423
1431
1418
1420
1434
1428
1426
1431
1427
1436
1433
1430
1428
1429
1426
1430
1427
1441
1428
1445
1429
1438
1445
1434
1447
1442
1445
1442
1445
1431
1434
1441
1437
1447
1434
1444
1437
1441
1444
1426
1433
1430
1438
1434
1444
1450
1447
1446
1450
1446
1447
1444
1443
1434
1433
1442
1433
1436
1433
1438
1465
1433
1432
1428
1432
1429
1442
1432
1434
1431
1428
1437
1432
1432
1420
1428
1417
1417
1411
1411
1415
1414
1410
1415
1415
1406
1415
1412
1412
1409
1412
1409
1409
1405
1406
1409
1415
1410
1409
1408
1423
1424
1426
1428
1420
1434
1432
1428
1433
1447
1444
1441
1449
1442
1450
1442
1453
1450
1446
1456
1453
1450
1456
1450
1457
1449
1444
1456
1448
1450
1447
1449
1447
1442
1434
1447
1441
1439
1440
1439
1442
1438
1428
1439
1434
1438
1430
1433
1436
1427
1437
1428
1444
1433
1440
1432
1438
1435
1433
1438
1435
1443
1436
1441
1435
1443
1440
1434
1435
1442
1433
1444
1450
1436
1436
1440
1434
1440
1428
1434
1438
1441
1437
1434
1434
1428
1437
1435
1426
1426
1438
1431
1432
1426
1435
1428
1437
1428
1434
1424
1438
1428
1430
1426
1438
1439
1427
1440
1428
1440
1428
1439
1437
1441
1437
1437
1440
1434
1434
1436
1428
1433
1441
1428
1434
1434
1435
1433
1435
1440
1430
1427
1440
1428
1442
1441
1438
1437
1438
1428
1436
1428
1442
1435
1434
1430
1429
1432
1437
1438
1428
1441
1437
1432
1428
1427
1437
1431
1434
1428
1438
1432
1428
1431
1435
1431
1426
1438
1435
1442
1433
1434
1445
1437
1448
1442
1450
1445
1442
1458
1450
1453
1456
1458
1453
1455
1458
1462
1469
1464
1465
1479
1476
1467
1461
1460
1454
1454
1457
1445
1453
1450
1442
1443
1441
1447
1440
1435
1437
1422
1423
1422
1421
1413
1411
1413
1409
1406
1404
1398
1399
1398
1403
1404
1409
1415
1406
1424
1417
1420
1429
1421
1428
1420
1426
1427
1434
1425
1429
1418
1422
1420
1427
1420
1421
1416
1414
1419
1418
1412
1407
1411
1419
1415
1419
1412
1406
1405
1406
1412
1415
1405
1409
1409
1406
1417
1405
1408
1411
1417
1423
1421
1424
1429
1433
1439
1436
1450
1442
1463
1457
1453
1462
1452
1461
1456
1463
1450
1456
1443
1447
1443
1446
1441
1442
1443
1444
1442
1453
1434
1440
1434
1437
1427
1426
1418
1423
1424
1415
1417
1417
1415
1417
1425
1417
1417
1415
1418
1417
1423
1431
1423
1431
1424
1430
1423
1441
1434
1444
1442
1450
1440
1453
1442
1456
1447
1451
1445
1456
1450
1458
1446
1447
1447
1451
1450
1450
1444
1453
1442
1449
1442
1453
1446
1453
1440
1450
1443
1450
1440
1445
1447
1442
1434
1446
1441
1438
1438
1440
1433
1445
1435
1444
1432
1433
1428
1441
1427
1429
1426
1432
1439
1429
1423
1431
1422
1430
1427
1428
1423
1420
1423
1422
1416
1416
1415
1420
1420
1415
1426
1418
1418
1411
1428
1420
1429
1426
1434
1432
1432
1431
1434
1434
1438
1434
1444
1438
1438
1438
1439
1430
1445
1439
1434
1440
1440
1439
1437
1440
1434
1436
1428
1439
1441
1436
1437
1444
1445
1439
1441
1433
1442
1441
1444
1433
1442
1437
1435
1440
1434
1438
1436
1439
1439
1444
1447
1444
1450
1439
1438
1434
1450
1442
1440
1447
1441
1439
1435
1450
1439
1442
1431
1444
1431
1442
1436
1433
1441
1437
1441
1431
1439
1430
1427
1430
1435
1435
1434
1419
1431
1430
1427
1434
1423
1426
1424
1429
1425
1420
1431
1441
1429
1442
1437
1431
1438
1442
1440
1433
1438
1434
1434
1421
1428
1418
1414
1412
1418
1412
1422
1408
1422
1423
1423
1423
1415
1421
1426
1432
1423
1439
1432
1433
1439
1442
1435
1434
1445
1438
1434
1433
1442
1441
1434
1441
1442
1439
1440
1436
1441
1441
1441
1432
1439
1434
1440
1433
1443
1442
1434
1432
1438
1431
1441
1430
1442
1442
1448
1437
1450
1445
1451
1447
1453
1453
1450
1447
1445
1443
1444
1435
1428
1438
1431
1426
1430
1415
1420
1417
1423
1408
14071448
1443
1443
1441
1437
1437
1439
1429
1436
1423
1431
1420
1424
1421
1428
1431
1423
1418
1421
1433
1418
1418
1426
1431
1423
1427
1429
1429
1426
1436
1435
1441
1442
1453
1443
1453
1446
1462
1453
1456
1464
1463
1460
1469
1467
1470
1470
1464
1453
1452
1447
1447
1445
1444
1445
1444
1442
1434
1432
1433
1437
1432
1437
1426
1418
1415
1406
1411
1420
1400
1412
1395
1392
1395
1401
1411
1397
1410
1406
1428
1439
1441
1450
1458
1474
1472
1489
1491
1503
1516
1518
1521
1512
1517
1512
1549
1511
1499
1499
1494
1487
1476
1465
1450
1438
1438
1421
1421
1404
1396
1393
1374
1363
1352
1343
1344
1324
1335
1326
1322
1329
1323
1335
1341
1346
1346
1349
1357
1348
1357
1355
1360
1365
1370
1376
1383
1385
1387
1393
1395
1397
1399
1398
1405
1417
1412
1423
1427
1432
1430
1433
1440
1445
1442
1445
1442
1439
1447
1446
1442
1426
1436
1443
1432
1439
1433
1428
1431
1423
1437
1436
1438
1437
1444
1442
1450
1447
1452
1452
1455
1456
1458
1472
1461
1469
1458
1475
1462
1477
1471
1475
1475
1472
1476
1476
1475
1470
1469
1449
1450
1449
1456
1442
1450
1444
1433
1441
1430
1434
1417
1424
1421
1409
1404
1386
1400
1390
1390
1382
1391
1375
1377
1382
1381
1384
1384
1385
1386
1387
1385
1392
1382
1406
1404
1403
1406
1412
1417
1415
1420
1430
1428
1441
1436
1446
1449
1445
1447
1454
1444
1458
1456
1450
1442
1452
1441
1445
1434
1438
1420
1422
1409
1411
1402
1398
1399
1397
1399
1389
1390
1386
1395
1397
1400
1392
1398
1398
1415
1401
1415
1409
1412
1409
1411
1417
1411
1411
1406
1412
1406
1407
1408
1405
1426
1415
1412
1409
1412
1405
1412
1408
1403
1399
1414
1408
1410
1405
1402
1402
1399
1414
1409
1409
1411
1398
1410
1397
1397
1398
1402
1395
1401
1400
1405
1409
1404
1403
1405
1406
1416
1418
1423
1429
1446
1448
1450
1445
1458
1453
1465
1464
1482
1482
1497
1491
1499
1500
1516
1518
1537
1540
1544
1556
1551
1565
1557
1564
1558
1554
1560
1557
1553
1560
1545
1539
1522
1526
1510
1511
1505
1499
1507
1492
1492
1485
1490
1475
1475
1464
1455
1443
1428
1435
1415
1420
1423
1405
1417
1410
1406
1409
1400
1412
1406
1407
1409
1432
1426
1429
1450
1447
1458
1459
1469
1469
1479
1471
1467
1469
1470
1461
1472
1464
1473
1481
1487
1480
1489
1478
1484
1471
1461
1456
1458
1457
1459
1442
1453
1438
1426
1428
1420
1414
1407
1395
1379
1362
1355
1351
1351
1339
1335
1341
1341
1350
1348
1360
1361
1373
1376
1390
1420
1432
1441
1464
1467
1481
1494
1510
1512
1560
1567
1558
1579
1573
1587
1590
1600
1601
1608
1603
1600
1590
1585
1576
1579
1555
1553
1538
1535
1513
1508
1497
1476
1470
1452
1450
1436
1434
1420
1417
1414
1385
1378
1371
1371
1366
1371
1368
1393
1390
1388
1405
1412
1418
1417
1416
1420
1417
1423
1412
1415
1415
1426
1424
1427
1417
1417
1424
1413
1423
1428
1440
1450
1469
1485
1491
1512
1527
1524
1552
1582
1570
1579
1584
1582
1582
1569
1568
1567
1549
1518
1502
1490
1474
1461
1442
1393
1371
1352
1337
1330
1304
1288
1281
1256
1231
1209
1203
1189
1171
1165
1143
1135
1097
1089
1072
1067
1053
1057
1057
1053
1063
1070
1091
1109
1132
1146
1174
1229
1250
1268
1297
1317
1337
1359
1374
1437
1428
1429
1438
1422
1428
1426
1421
1417
1417
1420
1428
1417
1423
1429
1425
1418
1415
1406
1409
1404
1391
1379
1385
1371
1374
1373
1368
1370
1371
1376
1378
1379
1368
1376
1380
1385
1392
1397
1415
1427
1424
1432
1436
1446
1443
1456
1450
1464
1453
1461
1453
1456
1453
1451
1449
1452
1450
1449
1456
1459
1458
1467
1464
1466
1479
1467
1472
1472
1488
1475
1483
1488
1494
1500
1503
1520
1517
1521
1532
1541
1548
1549
1557
1555
1573
1567
1577
1586
1587
1597
1598
1607
1611
1609
1618
1606
1603
1597
1597
1590
1593
1576
1565
1555
1529
1526
1514
1499
1497
1484
1480
1474
1482
1474
1478
1488
1493
1499
1505
1508
1509
1508
1509
1515
1503
1502
1503
1498
1492
1488
1477
1461
1469
1445
1442
1441
1431
1440
1427
1434
1417
1428
1423
1420
1408
1409
1405
1402
1403
1383
1379
1374
1382
1387
1376
1376
1376
1384
1376
1367
1383
1363
1366
1360
1356
1335
1330
1327
1324
1321
1318
1318
1308
1308
1307
1301
1300
1303
1301
1310
1311
1319
1323
1324
1322
1324
1338
1329
1338
1335
1335
1341
1339
1346
1347
1352
1350
1355
1355
1358
1368
1364
1374
1374
1385
1409
1412
1412
1431
1432
1436
1446
1453
1483
1487
1491
1485
1490
1488
1486
1456
1428
1415
1409
1398
1381
1379
1364
1364
1333
1327
1318
1305
1300
1290
1280
1256
1242
1226
1220
1212
1200
1195
1187
1183
1177
1174
1185
1178
1186
1187
1198
1215
1228
1252
1256
1272
1283
1312
1333
1389
1409
1426
1442
1467
1469
1504
1503
1543
1542
1558
1554
1568
1559
1572
1554
1546
1540
1541
1537
1546
1530
1540
1535
1535
1543
1562
1546
1557
1558
1558
1547
1552
1543
1545
1543
1549
1535
1543
1530
1517
1521
1499
1499
1472
1472
1458
1454
1428
1429
1424
1418
1427
1429
1423
1435
1451
1452
1459
1465
1470
1481
1485
1502
1524
1532
1533
1540
1547
1556
1565
1582
1595
1592
1593
1615
1615
1609
1614
1616
1619
1611
1617
1618
1617
1610
1604
1601
1600
1596
1596
1587
1581
1588
1576
1565
1560
1565
1546
1549
1535
1535
1525
1525
1502
1497
1488
1483
1472
1461
1455
1442
1441
1431
1427
1415
1420
1415
1412
1410
1411
1404
1417
1409
1410
1406
1405
1411
1423
1410
1430
1418
1425
1427
1423
1426
1415
1417
1420
1418
1417
1420
1412
1404
1396
1383
1384
1371
1374
1357
1352
1341
1346
1341
1340
1343
1343
1335
1340
1338
1341
1343
1348
1357
1360
1365
1361
1373
1365
1378
1363
1371
1368
1367
1354
1354
1349
1338
1349
1341
1338
1328
1318
1311
1321
1319
1306
1313
1317
1315
1344
1346
1353
1372
1376
1392
1401
1423
1446
1442
1461
1464
1478
1471
1483
1486
1491
1481
1481
1483
1477
1463
1453
1451
1449
1440
1444
1431
1428
1423
1423
1409
1387
1388
1379
1391
1376
1382
1364
1368
1364
1357
1368
1362
1368
1364
1368
1363
1365
1369
1374
1370
1369
1382
1381
1400
1402
1406
1418
1423
1437
1434
1446
1458
1473
1475
1479
1489
1497
1497
1502
1501
1517
1521
1508
1521
1526
1511
1517
1514
1515
1505
1513
1496
1497
1483
1480
1471
1461
1454
1440
1434
1428
1420
1422
1419
1434
1429
1437
1435
1450
1455
1448
1467
1467
1453
1444
1447
1423
1404
1379
1379
1368
1369
1359
1361
1357
1375
1392
1406
1405
1447
1450
1464
1502
1498
1510
1517
1517
1526
1533
1532
1532
1532
1535
1549
1546
1557
1567
1579
1579
1587
1589
1598
1595
1597
1582
1570
1561
1544
1552
1533
1532
1513
1494
1488
1447
1428
1420
1411
1406
1394
1374
1378
1375
1365
1370
1360
1364
1357
1361
1341
1338
1324
1324
1314
1307
1300
1286
1265
1266
1260
1263
1250
1245
1248
1255
1260
1257
1264
1271
1282
1289
1308
1344
1348
1368
1375
1389
1402
1417
1428
1453
1452
1464
1462
1466
1466
1467
1459
1473
1477
1467
1477
1464
1469
1464
1470
1461
1447
1454
1440
1438
1426
1431
1423
1422
1408
1416
1411
1426
1412
1423
1432
1432
1434
1437
1442
1453
1450
1464
1469
1470
1490
1487
1497
1494
1502
1508
1526
1528
1541
1532
1547
1545
1551
1558
1546
1554
1552
1549
1535
1541
1534
1523
1516
1516
1508
1502
1488
1480
1467
1432
1412
1406
1388
1377
1365
1363
1337
1322
1316
1316
1306
1300
1288
1294
1298
1303
1311
1320
1325
1338
1343
1362
1377
1382
1391
1390
1400
1401
1406
1415
1419
1416
1411
1423
1420
1416
1423
1409
1423
1423
1428
1428
1434
1436
1448
1431
1445
1446
1456
1461
1461
1452
1450
1436
1423
1422
1434
1426
1429
1427
1435
1430
1443
1455
1469
1478
1473
1486
1490
1499
1495
1497
1490
1498
1492
1488
1481
1480
1461
1438
1413
1400
1386
1356
1346
1328
1302
1293
1294
1286
1294
1286
1308
1316
1344
1360
1365
1389
1402
1429
1449
1459
1513
1518
1528
1534
1546
1567
1565
1575
1563
1565
1557
1562
1549
1532
1524
1513
1505
1502
1494
1489
1485
1473
1471
1453
1450
1441
1446
1443
1457
1453
1482
1481
1480
1488
1480
1461
1463
1464
1445
1426
1409
1409
1399
1400
1385
1398
1406
1404
1401
1401
1417
1425
1420
1440
1448
1486
1486
1493
1495
1492
1491
1482
1454
1441
1415
1399
1388
1368
1364
1341
1290
1282
1277
1264
1257
1250
1245
1240
1229
1235
1224
1235
1218
1255
1219
1215
1208
1203
1200
1200
1197
1207
1202
1210
1215
1218
1234
1237
1258
1270
1288
1299
1365
1376
1398
1438
1418
1426
1430
1455
1455
1459
1474
1479
1482
1477
1485
1491
1497
1497
1499
1505
1502
1503
1499
1504
1508
1510
1502
1503
1500
1502
1510
1497
1513
1508
1505
1509
1505
1515
1512
1516
1504
1510
1498
1497
1486
1470
1451
1438
1383
1382
1360
1360
1348
1348
1332
1333
1330
1339
1338
1342
1336
1352
1348
1349
1341
1335
1343
1335
1341
1342
1352
1364
1376
1376
1393
1400
1409
1420
1423
1434
1471
1465
1461
1463
1455
1458
1448
1416
1401
1393
1374
1358
1341
1333
1322
1289
1279
1257
1250
1239
1229
1218
1212
1204
1198
1200
1204
1213
1223
1235
1244
1280
1294
1313
1327
1343
1355
1368
1400
1402
1409
1426
1434
1441
1450
1461
1467
1491
1500
1506
1506
1516
1510
1521
1533
1532
1532
1544
1547
1551
1548
1554
1564
1607
1620
1628
1653
1661
1684
1699
1760
1770
1773
1793
1790
1798
1786
1790
1758
1739
1708
1688
1669
1634
1614
1590
1497
1482
1450
1433
1390
1386
1371
1322
1303
1292
1288
1277
1275
1264
1267
1265
1279
1289
1301
1313
1339
1368
1385
1431
1458
1480
1494
1521
1535
1556
1573
1587
1620
1625
1607
1625
1628
1620
1631
1602
1592
1593
1581
1569
1553
1545
1522
1458
1440
1420
1398
1374
1368
1327
1275
1245
1206
1182
1157
1131
1115
1100
1081
1066
1056
1067
1061
1081
1088
1113
1145
1185
1206
1230
1249
1280
1288
1315
1336
1383
1402
1418
1434
1434
1455
1459
1475
1483
1498
1510
1509
1517
1517
1530
1558
1570
1566
1584
1587
1598
1593
1608
1620
1628
1645
1658
1686
1683
1704
1719
1728
1718
1719
1714
1704
1692
1691
1680
1683
1649
1649
1631
1632
1612
1612
1598
1589
1565
1556
1546
1528
1526
1522
1513
1510
1510
1520
1516
1526
1540
1544
1562
1560
1569
1570
1557
1558
1549
1552
1538
1501
1474
1463
1437
1420
1403
1382
1358
1334
1279
1245
1238
1218
1188
1171
1157
1118
1094
1099
1089
1086
1065
1083
1077
1082
1100
1113
1122
1130
1150
1166
1196
1227
1261
1283
1305
1323
1333
1355
1363
1390
1433
1441
1459
1461
1474
1475
1487
1491
1502
1503
1500
1506
1506
1511
1513
1537
1543
1546
1564
1571
1593
1606
1612
1617
1638
1641
1632
1637
1623
1625
1601
1593
1574
1556
1554
1535
1527
1515
1496
1490
1458
1448
1430
1427
1411
1415
1409
1390
1398
1387
1382
1403
1396
1401
1412
1410
1411
1414
1418
1418
1420
1420
1417
1420
1419
1423
1420
1413
1412
1406
1406
1393
1364
1357
1341
1336
1324
1324
1319
1311
1305
1313
1312
1312
1309
1311
1309
1297
1303
1291
1302
1305
1298
1296
1296
1294
1301
1309
1312
1329
1344
1350
1374
1398
1406
1417
1431
1447
1442
1461
1455
1479
1476
1472
1481
1473
1475
1488
1479
1468
1456
1456
1440
1446
1447
1464
1490
1489
1505
1517
1515
1533
1540
1568
1562
1586
1585
1584
1582
1580
1572
1582
1552
1540
1536
1530
1523
1532
1521
1527
1512
1496
1499
1481
1490
1488
1491
1478
1486
1478
1480
1475
1481
1478
1482
1477
1486
1475
1461
1470
1475
1490
1489
1499
1495
1499
1491
1483
1485
1468
1473
1455
1456
1434
1426
1432
1426
1434
1429
1427
1417
1436
1445
1434
1447
1445
1455
1461
1468
1504
1510
1522
1543
1549
1570
1572
1590
1608
1588
1591
1588
1601
1585
1593
1583
1565
1556
1560
1540
1556
1529
1541
1509
1499
1486
1470
1462
1450
1445
1423
1421
1393
1367
1352
1338
1330
1316
1296
1301
1270
1260
1245
1234
1227
1226
1212
1183
1180
1173
1159
1159
1153
1152
1147
1159
1168
1171
1189
1196
1221
1224
1243
1271
1280
1287
1291
1309
1322
1317
1337
1354
1358
1360
1374
1374
1374
1370
1376
1370
1371
1365
1379
1371
1382
1379
1403
1404
1414
1412
1423
1428
1431
1428
1447
1457
1454
1464
1465
1464
1461
1467
1461
1471
1466
1474
1470
1482
1478
1491
1524
1527
1543
1560
1557
1573
1585
1599
1613
1608
1614
1610
1617
1607
1611
1599
1590
1582
1560
1562
1546
1534
1527
1515
1470
1457
1444
1420
1401
1382
1369
1327
1311
1297
1278
1273
1255
1243
1235
1232
1231
1231
1241
1249
1267
1280
1293
1336
1344
1360
1377
1387
1404
1423
1433
1454
1477
1494
1504
1522
1539
1546
1553
1571
1571
1591
1585
1584
1573
1579
1565
1576
1544
1551
1543
1536
1518
1510
1502
1481
1462
1446
1441
1419
1401
1389
1364
1336
1317
1311
1298
1287
1276
1279
1256
1248
1259
1253
1260
1256
1256
1260
1265
1283
1294
1295
1302
1305
1314
1323
1341
1349
1362
1364
1371
1385
1386
1403
1405
1420
1414
1423
1426
1417
1425
1434
1445
1449
1460
1470
1470
1469
1481
1493
1500
1495
1500
1502
1497
1506
1504
1504
1488
1482
1486
1475
1475
1471
1467
1470
1460
1458
1474
1470
1479
1488
1500
1506
1526
1540
1550
1556
1557
1560
1562
1566
1566
1570
1562
1557
1547
1545
1527
1525
1489
1483
1462
1458
1450
1443
1429
1422
1404
1404
1403
1404
1399
1409
1421
1428
1462
1459
1480
1475
1493
1494
1504
1505
1513
1503
1499
1493
1494
1491
1497
1481
1475
1469
1456
1446
1427
1426
1402
1374
1352
1350
1338
1328
1325
1317
1313
1293
1279
1274
1267
1264
1259
1259
1248
1236
1237
1234
1240
1238
1246
1253
1264
1292
1311
1315
1323
1337
1342
1361
1374
1405
1426
1431
1454
1471
1505
1532
1596
1650
1675
1688
1710
1716
1715
1727
1729
1692
1699
1673
1664
1655
1625
1620
1600
1543
1510
1483
1462
1430
1405
1394
1321
1288
1270
1242
1211
1197
1177
1146
1144
1110
1100
1107
1114
1129
1147
1157
1180
1239
1261
1286
1301
1332
1342
1365
1388
1437
1449
1464
1470
1486
1487
1499
1511
1522
1528
1532
1538
1527
1541
1527
1536
1535
1527
1530
1541
1523
1521
1530
1523
1529
1536
1530
1542
1535
1556
1560
1591
1605
1615
1610
1626
1622
1632
1615
1607
1598
1580
1581
1571
1554
1538
1527
1513
1472
1453
1438
1421
1417
1400
1382
1381
1341
1323
1313
1312
1297
1277
1278
1254
1241
1234
1223
1235
1223
1227
1223
1237
1242
1240
1247
1265
1277
1284
1289
1302
1336
1344
1359
1371
1386
1401
1404
1403
1396
1395
1405
1398
1395
1400
1398
1393
1410
1413
1414
1422
1427
1437
1437
1444
1465
1463
1465
1480
1478
1490
1494
1499
1502
1502
1502
1513
1510
1521
1530
1535
1546
1537
1542
1551
1543
1547
1546
1557
1575
1573
1563
1578
1582
1596
1593
1617
1632
1620
1622
1632
1655
1617
1608
1616
1653
1620
1585
1573
1590
1591
1554
1528
1535
1501
1502
1500
1472
1479
1453
1456
1421
1412
1400
1387
1371
1350
1336
1319
1289
1266
1238
1223
1205
1179
1183
1155
1135
1135
1111
1102
1101
1086
1096
1083
1086
1088
1102
1114
1119
1141
1156
1171
1210
1235
1250
1280
1300
1329
1346
1370
1408
1428
1441
1464
1475
1483
1497
1504
1508
1517
1523
1517
1518
1515
1516
1521
1522
1518
1505
1513
1510
1514
1510
1505
1502
1513
1500
1498
1493
1494
1499
1499
1492
1490
1494
1494
1503
1500
1500
1508
1502
1500
1502
1500
1505
1505
1499
1494
1488
14821554
1563
1574
1582
1573
1565
1560
1547
1534
1526
1529
1513
1501
1497
1489
1468
1445
1438
1422
1412
1395
1374
1365
1324
1307
1294
1283
1276
1264
1261
1250
1241
1235
1223
1229
1220
1226
1222
1230
1248
1245
1266
1265
1283
1283
1302
1311
1330
1332
1352
1354
1375
1378
1405
1410
1451
1467
1485
1512
1535
1546
1569
1638
1644
1658
1677
1683
1675
1706
1707
1681
1705
1728
1735
1686
1631
1633
1629
1649
1631
1579
1552
1557
1563
1521
1500
1474
1451
1436
1406
1382
1374
1338
1320
1289
1198
1171
1160
1137
1112
1104
1095
1089
1093
1099
1121
1129
1160
1177
1207
1222
1288
1313
1341
1371
1382
1413
1429
1482
1500
1505
1516
1531
1545
1552
1570
1567
1579
1582
1590
1590
1603
1593
1584
1584
1574
1581
1568
1567
1558
1560
1544
1554
1562
1569
1562
1584
1576
1577
1596
1582
1593
1556
1561
1555
1565
1528
1538
1521
1496
1483
1486
1461
1459
1456
1453
1448
1441
1436
1432
1426
1410
1390
1388
1373
1347
1345
1326
1325
1316
1306
1301
1300
1295
1292
1311
1310
1316
1319
1319
1330
1354
1352
1370
1371
1380
1383
1393
1394
1385
1371
1380
1374
1385
1380
1393
1393
1420
1420
1417
1426
1426
1417
1423
1430
1429
1429
1420
1426
1412
1412
1408
1406
1410
1385
1386
1383
1370
1364
1359
1317
1311
1298
1295
1282
1292
1289
1301
1306
1347
1373
1388
1415
1446
1461
1480
1513
1528
1540
1546
1556
1569
1569
1579
1602
1601
1588
1604
1592
1579
1583
1572
1571
1562
1546
1534
1519
1519
1505
1483
1475
1471
1453
1462
1442
1453
1442
1439
1414
1412
1393
1387
1372
1368
1350
1348
1333
1338
1335
1340
1336
1345
1349
1390
1430
1447
1471
1492
1510
1522
1534
1544
1554
1570
1582
1579
1540
1540
1562
1592
1519
1527
1535
1560
1536
1491
1488
1505
1456
1464
1431
1447
1417
1406
1395
1347
1312
1281
1253
1236
1205
1190
1168
1126
1108
1102
1114
1117
1118
1138
1146
1182
1188
1215
1228
1238
1264
1269
1322
1332
1335
1360
1371
1386
1399
1417
1434
1458
1477
1472
1487
1477
1489
1482
1492
1475
1471
1480
1483
1495
1497
1503
1504
1525
1510
1532
1519
1517
1505
1517
1496
1497
1494
1483
1471
1473
1476
1456
1452
1457
1452
1458
1473
1491
1491
1513
1538
1544
1556
1573
1569
1590
1594
1606
1599
1625
1602
1585
1610
1580
1582
1552
1549
1570
1533
1538
1538
1516
1517
1500
1489
1472
1464
1458
1450
1437
1414
1382
1376
1363
1351
1346
1333
1330
1317
1308
1310
1297
1303
1294
1288
1292
1286
1281
1287
1281
1280
1283
1282
1289
1299
1305
1326
1333
1342
1345
1363
1357
1371
1367
1378
1379
1382
1379
1388
1383
1387
1385
1379
1374
1384
1370
1368
1355
1348
1350
1346
1335
1351
1353
1357
1377
1382
1390
1403
1412
1415
1422
1419
1428
1456
1467
1470
1477
1475
1482
1497
1494
1504
1511
1503
1513
1517
1516
1522
1524
1531
1526
1530
1526
1528
1525
1525
1512
1513
1499
1499
1491
1489
1481
1482
1474
1460
1452
1454
1439
1447
1474
1426
1426
1421
1421
1433
1428
1429
1435
1434
1448
1450
1447
1453
1448
1461
1453
1458
1456
1464
1469
1474
1481
1494
1494
1499
1504
1530
1538
1550
1558
1568
1579
1579
1582
1604
1600
1582
1584
1610
1619
1571
1560
1598
1580
1534
1538
1541
1565
1568
1498
1508
1529
1526
1474
1475
1477
1491
1442
1425
1412
1400
1397
1375
1381
1371
1353
1344
1348
1342
1341
1347
1350
1345
1370
1385
1400
1393
1399
1404
1395
1407
1393
1376
1379
1371
1369
1361
1354
1349
1343
1333
1326
1310
1302
1289
1287
1267
1261
1216
1199
1190
1182
1186
1181
1186
1185
1221
1236
1241
1265
1278
1291
1305
1324
1369
1390
1392
1409
1417
1420
1431
1454
1456
1473
1475
1489
1492
1499
1494
1510
1513
1493
1505
1500
1497
1497
1483
1486
1478
1475
1486
1486
1499
1500
1520
1518
1535
1546
1546
1559
1560
1566
1552
1572
1564
1568
1559
1556
1552
1552
1529
1535
1499
1491
1487
1475
1467
1447
1437
1424
1393
1380
1376
1349
1343
1326
1330
1304
1281
1278
1278
1275
1267
1278
1270
1281
1281
1285
1300
1316
1329
1358
1379
1420
1493
1516
1549
1550
1579
1575
1587
1588
1592
1600
1593
1585
1590
1577
1580
1572
1558
1546
1546
1539
1528
1525
1506
1497
1466
1440
1436
1423
1403
1381
1365
1343
1302
1264
1267
1250
1246
1239
1235
1231
1226
1229
1235
1237
1234
1236
1227
1222
1227
1215
1221
1238
1242
1256
1259
1284
1318
1330
1350
1379
1387
1421
1429
1453
1499
1518
1528
1542
1572
1585
1605
1625
1664
1678
1697
1701
1700
1693
1713
1694
1666
1654
1658
1672
1632
1618
1625
1634
1590
1600
1552
1547
1540
1519
1527
1469
1461
1431
1404
1379
1346
1295
1279
1239
1160
1133
1105
1088
1079
1072
1072
1085
1093
1105
1119
1146
1158
1180
1200
1217
1282
1300
1317
1349
1369
1385
1404
1440
1458
1462
1479
1488
1506
1513
1520
1516
1535
1538
1555
1546
1557
1554
1565
1576
1593
1598
1595
1609
1619
1635
1623
1645
1644
1653
1648
1659
1679
1647
1658
1661
1713
1731
1704
1631
1614
1617
1618
1665
1582
1535
1534
1534
1540
1490
1484
1494
1456
1436
1428
1417
1410
1405
1395
1363
1335
1327
1301
1276
1253
1239
1216
1201
1171
1151
1156
1144
1146
1152
1166
1189
1215
1230
1250
1258
1279
1288
1310
1327
1329
1344
1353
1357
1363
1379
1382
1409
1414
1428
1443
1447
1462
1464
1486
1475
1485
1487
1475
1494
1485
1493
1489
1497
1494
1500
1499
1502
1510
1502
1510
1505
1502
1512
1514
1504
1510
1502
1517
1520
1529
1549
1570
1569
1609
1609
1606
1634
1646
1679
1693
1697
1619
1568
1595
1603
1558
1511
1498
1505
1520
1450
1458
1464
1433
1430
1431
1400
1413
1400
1379
1365
1348
1340
1322
1319
1306
1279
1270
1264
1265
1259
1257
1259
1259
1242
1260
1257
1248
1266
1260
1266
1267
1285
1289
1294
1304
1314
1333
1341
1350
1352
1387
1383
1395
1412
1415
1420
1437
1448
1461
1508
1474
1489
1499
1518
1526
1543
1548
1540
1555
1559
1561
1558
1570
1554
1553
1546
1548
1541
1532
1520
1513
1499
1496
1497
1497
1473
1475
1465
1469
1439
1447
1426
1434
1418
1406
1406
1390
1388
1380
1388
1387
1395
1400
1415
1418
1424
1433
1441
1450
1447
1453
1456
1458
1461
1458
1467
1458
1485
1469
1486
1486
1498
1494
1480
1475
1505
1510
1467
1479
1458
1450
1476
1441
1447
1450
1437
1431
1422
1435
1410
1415
1408
1390
1389
1372
1349
1348
1333
1319
1311
1301
1262
1239
1225
1226
1204
1201
1201
1195
1195
1206
1218
1233
1235
1248
1257
1274
1309
1317
1338
1363
1375
1410
1420
1447
1453
1510
1520
1543
1552
1575
1579
1593
1622
1616
1614
1609
1612
1596
1611
1593
1586
1563
1579
1547
1556
1535
1535
1517
1491
1491
1483
1483
1473
1473
1450
1452
1433
1411
1416
1398
1397
1387
1374
1357
1335
1348
1332
1327
1330
1316
1320
1305
1326
1335
1357
1368
1403
1427
1446
1479
1521
1516
1535
1518
1532
1562
1522
1535
1516
1524
1541
1517
1508
1516
1527
1492
1511
1474
1480
1499
1511
1469
1469
1473
1475
1458
1458
1457
1427
1444
1424
1426
1389
1388
1379
1386
1378
1376
1372
1374
1376
1382
1379
1376
1363
1369
1354
1356
1335
1336
1329
1335
1320
1321
1300
1294
1274
1267
1273
1264
1269
1262
1264
1245
1264
1264
1279
1293
1310
1324
1349
1390
1410
1423
1447
1442
1461
1467
1469
1475
1486
1482
1485
1482
1480
1475
1483
1483
1479
1468
1475
1475
1469
1479
1471
1467
1467
1460
1458
1464
1453
1472
1461
1467
1467
1470
1472
1481
1485
1478
1498
1500
1513
1521
1512
1524
1528
1535
1526
1527
1532
1518
1520
1529
1510
1508
1512
1497
1516
1497
1490
1520
1541
1556
1499
1496
1572
1586
1540
1492
1475
1491
1497
1528
1486
1451
1441
1453
1467
1469
1412
1411
1374
1383
1366
1356
1347
1341
1334
1326
1308
1300
1297
1294
1288
1281
1283
1289
1286
1298
1306
1312
1330
1354
1358
1396
1405
1412
1422
1435
1427
1429
1441
1447
1444
1433
1435
1428
1433
1422
1435
1412
1417
1405
1411
1405
1401
1407
1403
1412
1405
1412
1406
1415
1407
1403
1399
1389
1383
1392
1385
1383
1385
1402
1416
1433
1426
1417
1427
1434
1426
1440
1431
1438
1435
1450
1447
1456
1457
1473
1472
1473
1472
1488
1483
1486
1491
1490
1488
1493
1498
1480
1497
1491
1488
1499
1491
1489
1483
1514
1494
1475
1497
1497
1497
1472
1459
1475
1453
1464
1440
1456
1442
1429
1430
1424
1423
1418
1417
1404
1387
1384
1379
1360
1360
1341
1340
1327
1323
1324
1320
1326
1338
1356
1358
1377
1385
1404
1415
1418
1423
1428
1432
1420
1420
1425
1420
1420
1415
1409
1409
1410
1410
1411
1412
1409
1408
1399
1417
1408
1403
1404
1397
1398
1400
1397
1394
1407
1417
1406
1409
1417
1452
1426
1417
1399
1411
1411
1409
1402
1422
1426
1423
1436
1442
1465
1464
1477
1478
1496
1494
1510
1510
1546
1570
1588
1623
1637
1657
1670
1688
1693
1691
1688
1685
1680
1669
1674
1654
1644
1636
1612
1604
1603
1510
1413
1374
1318
1311
1288
1272
1260
1253
1215
1185
1143
1122
1086
1067
1049
1037
1005
1001
975
974
980
989
1001
1016
1026
1048
1106
1142
1180
1197
1223
1248
1280
1335
1352
1360
1383
1395
1408
1426
1424
1445
1454
1477
1480
1492
1494
1508
1499
1509
1521
1530
1542
1564
1559
1573
1579
1584
1601
1618
1616
1613
1617
1617
1614
1599
1586
1577
1580
1566
1569
1558
1556
1549
1526
1517
1513
1502
1499
1504
1497
1481
1464
1458
1453
1439
1439
1424
1423
1406
1403
1409
1405
1423
1411
1420
1418
1417
1448
1449
1461
1469
1479
1478
1493
1529
1531
1549
1562
1575
1593
1579
1609
1628
1581
1592
1617
1625
1566
1564
1565
1534
1531
1513
1497
1505
1481
1477
1472
1452
1420
1396
1397
1371
1365
1341
1326
1307
1242
1222
1217
1201
1182
1171
1157
1153
1149
1157
1162
1168
1183
1185
1200
1212
1218
1233
1234
1246
1263
1286
1295
1322
1363
1383
1395
1416
1433
1450
1479
1509
1531
1538
1561
1582
1604
1621
1631
1655
1677
1687
1679
1687
1681
1674
1675
1680
1645
1635
1657
1620
1617
1614
1604
1582
1565
1541
1524
1529
1516
1499
1500
1488
1460
1438
1423
1404
1393
1367
1367
1322
1310
1300
1305
1299
1288
1283
1285
1287
1300
1304
1308
1322
1332
1334
1341
1350
1363
1351
1358
1343
1338
1329
1329
1320
1333
1327
1323
1330
1330
1330
1334
1344
1371
1371
1379
1390
1393
1406
1406
1416
1432
1427
1442
1449
1452
1453
1460
1473
1466
1461
1480
1468
1473
1472
1478
1500
1497
1492
1500
1498
1502
1517
1536
1568
1590
1600
1612
1622
1619
1622
1612
1617
1601
1595
1589
1573
1570
1552
1542
1502
1494
1486
1470
1464
1439
1426
1406
1373
1364
1335
1329
1309
1297
1282
1275
1268
1261
1267
1271
1278
1270
1289
1311
1308
1315
1327
1341
1341
1347
1347
1354
1368
1373
1374
1375
1382
1387
1390
1417
1417
1426
1453
1450
1472
1472
1499
1538
1543
1564
1557
1583
1578
1579
1568
1556
1553
1558
1539
1552
1529
1523
1505
1473
1455
1453
1442
1426
1404
1396
1387
1338
1322
1317
1305
1300
1284
1278
1264
1245
1251
1246
1255
1261
1264
1271
1270
1303
1314
1313
1324
1327
1347
1339
1360
1352
1357
1363
1371
1374
1378
1377
1387
1404
1401
1399
1415
1417
1417
1426
1438
1436
1436
1454
1456
1467
1468
1486
1481
1497
1497
1503
1513
1518
1527
1532
1508
1505
1496
1493
1493
1490
1494
1488
1496
1490
1489
1491
1475
1486
1471
1476
1470
1455
1454
1453
1451
1452
1450
1450
1461
1458
1472
1476
1478
1496
1499
1508
1510
1550
1571
1569
1589
1592
1598
1608
1610
1614
1601
1593
1606
1593
1587
1584
1574
1551
1538
1539
1530
1528
1510
1505
1498
1447
1424
1411
1390
1373
1362
1346
1306
1282
1278
1277
1261
1259
1253
1249
1259
1278
1284
1273
1291
1293
1305
1315
1322
1318
1323
1324
1333
1324
1336
1333
1345
1349
1361
1357
1365
1376
1382
1383
1404
1401
1410
1412
1410
1408
1405
1409
1404
1405
1401
1409
1411
1423
1423
1430
1464
1469
1475
1490
1493
1499
1505
1506
1512
1535
1530
1550
1557
1573
1560
1571
1571
1557
1561
1563
1561
1557
1553
1552
1550
1549
1547
1539
1549
1546
1568
1568
1604
1657
1679
1710
1724
1744
1752
1774
1765
1762
1757
1746
1746
1721
1716
1716
1704
1663
1524
1452
1417
1423
1431
1393
1329
1298
1280
1267
1240
1215
1182
1152
1125
1036
1007
971
954
927
914
909
900
924
936
951
959
982
1002
1022
1029
1075
1095
1111
1138
1146
1170
1189
1248
1278
1303
1327
1344
1368
1397
1403
1424
1481
1497
1501
1512
1539
1537
1549
1564
1591
1595
1607
1623
1620
1631
1624
1625
1629
1639
1634
1636
1634
1634
1623
1620
1598
1601
1584
1581
1565
1561
1539
1500
1495
1473
1464
1449
1450
1438
1430
1409
1385
1370
1376
1377
1380
1376
1398
1382
1411
1419
1415
1427
1442
1450
1462
1486
1483
1481
1490
1481
1497
1487
1497
1491
1487
1488
1489
1487
1493
1498
1499
1500
1496
1497
1506
1510
1503
1503
1510
1516
1502
1502
1499
1481
1485
1471
1464
1449
1437
1423
1426
1417
1415
1420
1417
1420
1406
1420
1416
1415
1415
1417
1409
1427
1419
1420
1434
1437
1456
1457
1475
1489
1505
1505
1511
1511
1515
1510
1507
1521
1519
1514
1524
1518
1528
1532
1546
1549
1540
1556
1585
1602
1623
1644
1582
1549
1575
1581
1505
1483
1494
1500
1513
1546
1446
1461
1466
1434
1409
1415
1394
1354
1330
1321
1286
1259
1232
1204
1171
1146
1051
1031
1001
977
962
933
929
917
926
925
938
949
975
993
1013
1034
1100
1122
1142
1183
1199
1233
1261
1295
1326
1395
1412
1432
1456
1464
1481
1487
1523
1518
1521
1538
1535
1544
1540
1552
1549
1552
1543
1542
1541
1544
1538
1538
1541
1525
1532
1516
1514
1514
1514
1510
1516
1512
1505
1500
1504
1500
1502
1501
1508
1505
1497
1508
1505
1504
1499
1504
1502
1507
1505
1511
1499
1508
1512
1504
1511
1499
1499
1499
1499
1502
1502
1497
1486
1480
1471
1481
1478
1487
1488
1487
1483
1491
1485
1480
1486
1479
1480
1469
1476
1476
1468
1458
1467
1457
1455
1447
1457
1450
1447
1445
1438
1441
1428
1437
1428
1426
1424
1418
1406
1409
1407
1404
1404
1403
1404
1399
1402
1401
1407
1406
1407
1417
1417
1420
1434
1450
1450
1467
1465
1486
1490
1499
1499
1517
1505
1513
1524
1514
1509
1511
1518
1513
1512
1505
1499
1497
1497
1484
1481
1480
1474
1450
1452
1431
1420
1409
1404
1397
1390
1376
1371
1352
1349
1347
1333
1327
1320
1316
1317
1307
1294
1300
1306
1302
1294
1303
1313
1311
1311
1325
1316
1327
1344
1348
1365
1385
1398
1419
1426
1438
1450
1455
1467
1474
1479
1473
1489
1489
1493
1493
1499
1488
14871488
1497
1498
1502
1515
1508
1527
1536
1511
1528
1560
1594
1627
1591
1532
1546
1565
1573
1600
1604
1614
1622
1631
1631
1617
1610
1614
1617
1587
1464
1382
1376
1389
1409
1436
1398
1330
1326
1332
1294
1309
1295
1298
1292
1288
1283
1284
1263
1261
1252
1256
1257
1256
1250
1261
1266
1283
1283
1299
1302
1320
1331
1360
1369
1385
1382
1399
1403
1405
1417
1415
1432
1438
1432
1444
1439
1446
1439
1450
1468
1469
1467
1482
1476
1492
1478
1488
1492
1505
1488
1487
1502
1521
1549
1552
1502
1509
1535
1561
1571
1598
1605
1633
1615
1621
1627
1502
1441
1416
1417
1438
1387
1368
1371
1362
1340
1341
1323
1313
1282
1276
1262
1251
1232
1242
1225
1231
1218
1226
1223
1234
1237
1253
1257
1287
1297
1300
1325
1324
1347
1350
1368
1392
1399
1413
1426
1424
1436
1439
1454
1477
1497
1499
1519
1512
1522
1554
1566
1586
1579
1544
1557
1560
1589
1606
1587
1538
1535
1532
1553
1573
1598
1627
1634
1639
1649
1642
1649
1553
1475
1433
1460
1467
1494
1492
1412
1390
1397
1430
1370
1375
1393
1361
1355
1379
1364
1367
1362
1370
1359
1363
1355
1350
1355
1347
1350
1351
1357
1342
1355
1359
1365
1366
1365
1369
1367
1372
1368
1376
1375
1386
1381
1379
1382
1376
1391
1376
1381
1367
1375
1375
1380
1380
1379
1387
1395
1411
1415
1432
1422
1438
1431
1438
1441
1436
1446
1450
1452
1446
1467
1464
1458
1462
1464
1467
1464
1488
1470
1469
1491
1479
1457
1470
1468
1452
1471
1447
1458
1437
1423
1409
1409
1403
1391
1393
1376
1372
1370
1360
1370
1368
1374
1368
1372
1373
1385
1385
1389
1383
1387
1374
1387
1370
1374
1376
1360
1375
1376
1394
1385
1400
1420
1417
1420
1435
1442
1447
1457
1475
1478
1472
1486
1487
1493
1489
1497
1495
1493
1486
1491
1487
1491
1480
1487
1494
1479
1480
1470
1480
1471
1472
1473
1470
1475
1461
1469
1456
1470
1467
1464
1461
1469
1462
1476
1460
1477
1469
1461
1478
1471
1461
1471
1458
1475
1449
1452
1442
1440
1429
1428
1417
1418
1419
1420
1417
1426
1428
1420
1428
1435
1433
1424
1429
1421
1431
1423
1426
1415
1424
1417
1421
1433
1433
1440
1434
1453
1439
1460
1467
1448
1469
1461
1464
1453
1455
1443
1453
1450
1446
1441
1450
1435
1446
1425
1435
1434
1434
1437
1441
1431
1433
1438
1439
1431
1428
1423
1431
1415
1420
1395
1398
1382
1398
1385
1385
1382
1386
1387
1395
1396
1409
1413
1416
1423
1443
1442
1454
1450
1459
1468
1459
1461
1467
1450
1456
1452
1442
1454
1437
1448
1441
1432
1427
1435
1427
1425
1421
1415
1410
1409
1405
1409
1411
1401
1409
1406
1424
1415
1421
1445
1443
1450
1464
1469
1516
1515
1478
1471
1491
1514
1535
1567
1615
1614
1622
1634
1634
1636
1637
1641
1617
1610
1605
1594
1557
1427
1382
1359
1430
1362
1329
1323
1356
1314
1304
1301
1291
1283
1272
1265
1253
1242
1230
1224
1222
1212
1216
1215
1227
1242
1242
1281
1297
1324
1335
1358
1356
1380
1390
1409
1423
1416
1426
1435
1423
1450
1439
1467
1477
1481
1493
1494
1497
1526
1502
1553
1584
1599
1639
1647
1664
1664
1682
1686
1680
1674
1666
1666
1657
1658
1635
1625
1625
1608
1598
1593
1587
1499
1334
1330
1359
1371
1376
1305
1293
1289
1300
1273
1275
1272
1270
1260
1259
1251
1251
1253
1244
1256
1257
1264
1259
1300
1297
1323
1323
1335
1340
1345
1348
1353
1352
1363
1364
1385
1395
1399
1428
1458
1457
1459
1476
1467
1496
1479
1494
1506
1505
1505
1532
1500
1489
1505
1525
1535
1482
1496
1510
1469
1465
1473
1505
1535
1582
1532
1474
1458
1477
1485
1510
1522
1573
1584
1599
1605
1605
1599
1614
1608
1581
1579
1583
1565
1566
1563
1552
1540
1544
1524
1525
1512
1510
1510
1493
1486
1489
1480
1487
1468
1475
1405
1283
1226
1235
1275
1224
1197
1218
1201
1204
1180
1171
1162
1146
1136
1125
1122
1112
1118
1125
1148
1160
1184
1193
1256
1275
1303
1327
1329
1359
1368
1392
1401
1441
1453
1470
1456
1469
1461
1474
1474
1473
1462
1473
1461
1467
1461
1466
1458
1450
1447
1450
1454
1445
1453
1445
1449
1456
1464
1459
1472
1462
1466
1469
1475
1470
1478
1476
1479
1477
1480
1475
1485
1479
1469
1464
1481
1469
1469
1469
1458
1458
1469
1450
1472
1451
1453
1464
1451
1465
1450
1461
1491
1464
1457
1467
1461
1456
1465
1497
1505
1456
1456
1461
1535
1552
1575
1598
1602
1612
1623
1628
1622
1620
1612
1607
1611
1598
1590
1593
1570
1558
1562
1549
1546
1541
1543
1524
1506
1506
1504
1492
1489
1491
1481
1488
1288
1241
1227
1242
1265
1302
1335
1267
1250
1280
1248
1240
1256
1277
1257
1268
1281
1266
1295
1277
1291
1288
1294
1308
1306
1320
1319
1346
1340
1352
1378
1358
1417
1385
1406
1427
1453
1442
1408
1415
1481
1505
1459
1423
1423
1434
1464
1517
1521
1439
1420
1420
1439
1466
1491
1509
1441
1404
1407
1423
1442
1475
1493
1416
1393
1389
1426
1447
1471
1494
1516
1441
1390
1406
1434
1461
1480
1513
1527
1554
1557
1562
1568
1568
1573
1563
1570
1561
1546
1540
1544
1535
1535
1528
1521
1520
1508
1503
1502
1502
1491
1481
1485
1468
1476
1464
1474
1457
1467
1454
1458
1445
1442
1446
1441
1442
1434
1434
1433
1442
1434
1438
1428
1431
1423
1426
1420
1423
1391
1263
1194
1181
1185
1223
1248
1209
1179
1185
1179
1180
1182
1179
1166
1171
1160
1157
1159
1168
1166
1183
1194
1223
1283
1305
1330
1371
1387
1417
1426
1450
1467
1490
1491
1472
1483
1502
1520
1532
1491
1503
1530
1543
1481
1472
1478
1503
1496
1462
1458
1484
1500
1527
1469
1444
1486
1446
1434
1434
1453
1418
1414
1424
1405
1405
1406
1409
1404
1396
1401
1425
1413
1429
1417
1427
1417
1424
1412
1413
1418
1420
1415
1419
1428
1439
1458
1447
1496
1497
1466
1462
1490
1511
1536
1555
1488
1464
1478
1491
1517
1546
1558
1569
1471
1441
1430
1452
1468
1504
1519
1536
1404
1406
1426
1453
1473
1499
1517
1533
1566
1565
1571
1573
1571
1579
1582
1575
1564
1552
1561
1550
1549
1538
1543
1532
1519
1512
1508
1507
1503
1500
1497
1494
1488
1472
1485
1468
1479
1440
1308
1240
1243
1274
1298
1281
1225
1209
1247
1275
1244
1272
1304
1277
1267
1293
1318
1295
1335
1324
1316
1345
1389
1353
1352
1412
1420
1385
1376
1404
1430
1447
1486
1505
1556
1557
1581
1576
1587
1571
1584
1567
1563
1565
1569
1554
1553
1551
1550
1538
1319
1292
1286
1305
1333
1361
1393
1354
1296
1318
1340
1314
1283
1293
1315
1354
1306
1335
1368
1411
1381
1350
1343
1425
1450
1482
1493
1516
1534
1546
1559
1565
1569
1562
1573
1562
1575
1557
1561
1551
1548
1523
1390
1313
1288
1297
1316
1394
1405
1371
1308
1294
1298
1333
1363
1324
1313
1318
1349
1375
1405
1364
1352
1376
1389
1347
1354
1361
1398
1415
1363
1393
1408
1440
1460
1399
1391
1395
1501
1517
1535
1557
1561
1575
1571
1582
1579
1582
1578
1574
1579
1482
1382
1347
1377
1400
1416
1438
1462
1480
1489
1390
1341
1354
1387
1414
1434
1468
1478
1497
1533
1532
1537
1532
1542
1530
1537
1528
1527
1520
1522
1515
1508
1505
1502
1502
1493
1487
1494
1491
1481
1475
1474
1473
1467
1459
1465
1455
1461
1453
1459
1451
1453
1440
1437
1446
1436
1442
1435
1444
1434
1431
1432
1424
1434
1439
1429
1425
1423
1423
1426
1418
1417
1420
1431
1418
1417
1415
1403
1268
1194
1169
1188
1204
1163
1196
1174
1174
1209
1198
1211
1213
1237
1242
1267
1261
1288
1283
1311
1298
1362
1335
1361
1395
1411
1382
1380
1455
1491
1497
1444
1421
1426
1441
1479
1497
1558
1569
1571
1584
1593
1605
1602
1609
1591
1589
1591
1583
1581
1576
1577
1568
1557
1543
1547
1541
1540
1528
1529
1513
1517
1508
1502
1499
1491
1489
1488
1480
1476
1467
1469
1464
1470
1456
1457
1449
1454
1455
1439
1452
1445
1446
1441
1431
1441
1443
1428
1434
1431
1434
1424
1434
1425
1433
1430
1431
1423
1433
1421
1425
1431
1423
1428
1418
1420
1424
1420
1430
1420
1419
1420
1425
1417
1419
1423
1424
1417
1415
1415
1423
1422
1413
1414
1419
1421
1420
1416
1412
1425
1426
1415
1416
1424
1415
1415
1418
1418
1423
1423
1417
1423
1412
1412
1420
1431
1421
1420
1415
1420
1428
1423
1423
1421
1429
1416
1428
1417
1420
1427
1420
1426
1423
1423
1427
1426
1421
1434
1423
1417
1433
1428
1430
1433
1418
1417
1419
1426
1421
1423
1429
1419
1419
1417
1420
1430
1421
1434
1428
1424
1424
1423
1428
1423
1427
1428
1430
1423
1430
1426
1429
1426
1426
1435
1429
1429
1421
1424
1422
1429
1428
1423
1421
1427
1422
1428
1424
1432
1417
1428
1432
1421
1426
1423
1434
1427
1428
1424
1428
1421
1433
1426
1437
1421
1428
1414
1424
1436
1423
1432
1427
1434
1418
1428
1420
1433
1424
1434
1426
1322
1212
1201
1234
1272
1299
1330
1352
1395
1433
1443
1450
1466
1464
1474
1475
1482
1486
1488
1490
1483
1489
1478
1488
1479
1477
1469
1463
1473
1465
1475
1462
1468
1462
1467
1462
1458
1453
1458
1446
1452
1447
1442
1447
1440
1453
1442
1446
1438
1440
1434
1443
1433
1443
1434
1441
1431
1446
1434
1439
1435
1428
1438
1428
1436
1433
1426
1432
1428
1433
1438
1438
1431
1439
1435
1423
1426
1426
1430
1423
1432
1426
1432
1434
1420
1441
1430
1428
1434
1433
1428
1433
1423
1429
1427
1431
1421
1430
1430
1429
1435
1426
1435
1424
1441
1430
1421
1428
1428
1434
1431
1428
1439
1430
1431
1430
1432
1428
1435
1427
1432
1428
1424
1432
1428
1431
1421
1430
1431
1425
1431
1427
1434
1426
1432
1427
1433
1429
1423
1430
1424
1432
1426
1433
1423
1432
1423
1434
1430
1439
1427
1437
1428
1435
1431
1426
1434
1423
1433
1435
1435
1428
1427
1433
1436
1438
1431
1437
1429
1431
1423
1427
1428
1434
1428
1437
1427
1434
1428
1433
1433
1426
1437
1429
1434
1437
1431
1437
1423
1435
1426
1434
1428
1428
1428
1433
1436
1436
1426
1431
1436
1436
1423
1434
1428
1439
1435
1434
1441
1435
1426
1434
1427
1437
1428
1443
1421
1430
1431
1434
1427
1436
1429
1438
1432
1436
1438
1431
1434
1424
1433
1426
1433
1429
1432
1434
1437
1430
1434
1426
1431
1427
1432
1429
1435
1426
1438
1430
1429
1426
1433
1424
1431
1426
1437
1428
1439
1437
1428
1433
1438
1436
1428
1442
1430
1430
1431
1439
1429
1438
1426
1436
1434
1428
1433
1438
1433
1439
1429
1431
1428
1434
1428
1439
1423
1436
1434
1435
1434
1434
1424
1441
1423
1431
1435
1437
1423
1424
1434
1430
1440
1438
1428
1430
1428
1429
1432
1428
1431
1437
1423
1439
1434
1439
1424
1434
1429
1442
1428
1427
1428
1438
1428
1439
1428
1436
1430
1438
1430
1431
1434
1435
1443
1428
1435
1427
1434
1439
1428
1441
1435
1436
1424
1435
1432
1432
1436
1430
1446
1428
1438
1428
1428
1428
1434
1434
1439
1438
1434
1433
1434
1432
1431
1434
1428
1434
1431
1431
1426
1439
1431
1437
1428
1435
1435
1440
1431
1437
1436
1438
1426
1434
1430
1434
1439
1428
1431
1425
1434
1432
1437
1434
1428
1430
1429
1438
1424
1431
1429
1437
1435
1427
1428
1435
1428
1432
1428
1438
1426
1428
1434
1431
1432
1431
1434
1435
1434
1431
1434
1437
1440
1428
1426
1420
1430
1426
1434
1434
1441
1428
1434
1434
1424
1433
1427
1435
1431
1434
1430
1435
1431
1431
1433
1428
1434
1432
1428
1439
1427
1436
1428
1436
1430
1439
1434
1437
1426
1435
1434
1439
1426
1433
1432
1428
1429
1428
1431
1429
1441
1427
1428
1435
1432
1359
1236
1194
1185
1271
1303
1333
1351
1393
1404
1427
1446
1476
1473
1489
1472
1498
1483
1492
1489
1485
1492
1481
1479
1483
1483
1479
1479
1477
1473
1470
1479
1469
1469
1468
1469
1464
1462
1464
1458
1468
1456
1464
1453
1463
1461
1442
1457
1443
1444
1439
1445
1448
1440
1445
1442
1443
1437
1439
1442
1437
1429
1444
1430
1441
1439
1439
1438
1441
1432
1427
1441
1428
1434
1433
1438
1434
1435
1434
1433
1430
1435
1431
1431
1440
1428
1447
1435
1436
1428
1439
1423
1441
1440
1426
1436
1428
1434
1428
1439
1426
1435
1434
1432
1437
1426
1441
1433
1429
1428
1431
1430
1436
1423
1438
1426
1434
1442
1416
1301
1222
1193
1210
1223
1295
1234
1228
1251
1278
1322
1350
1319
1294
1300
1335
1365
1400
1421
1458
1409
1364
1388
1432
1453
1480
1494
1515
1521
1552
1552
1549
1562
1555
1556
1549
1556
1550
1541
1535
1540
1521
1533
1521
1523
1519
1510
1505
1497
1504
1497
1496
1498
1474
1491
1478
1488
1473
1479
1464
1465
1461
1464
1455
1462
1458
1463
1450
1452
1442
1450
1442
1450
1446
1451
1447
1446
1437
1446
1439
1445
1442
1442
1438
1443
1427
1434
1430
1444
1428
1440
1426
1427
1434
1432
1433
1426
1438
1428
1437
1435
1421
1439
1431
1435
1426
1431
1433
1434
1424
1434
1428
1434
1424
1432
1434
1433
1428
1431
1428
1431
1432
1438
1436
1433
1426
1435
1429
1433
1424
1438
1428
1426
1428
1431
1433
1429
1438
1427
1434
1428
1422
1428
1432
1428
1428
1431
1434
1429
1426
1428
1431
1429
1437
1428
1434
1432
1426
1434
1430
1433
1431
1436
1429
1424
1428
1430
1437
1426
1428
1436
1423
1442
1426
1436
1428
1429
1426
1434
1435
1425
1434
1427
1438
1418
1423
1436
1426
1423
1435
1427
1431
1428
1431
1425
1430
1431
1423
1439
1424
1433
1426
1437
1436
1433
1430
1441
1426
1431
1426
1434
1434
1432
1426
1428
1429
1428
1428
1434
1438
1434
1424
1438
1428
1434
1425
1434
1431
1441
1428
1441
1426
1435
1426
1436
1432
1444
1424
1437
1423
1434
1426
1436
1428
1426
1433
1432
1442
1428
1434
1428
1434
1426
1439
1429
1434
1423
1439
1434
1438
1427
1428
1425
1433
1431
1439
1442
1426
1441
1432
1431
1434
1441
1434
1429
1425
1441
1427
1437
1429
1435
1427
1434
1426
1442
1428
1431
1429
1434
1428
1437
1431
1436
1430
1436
1428
1434
1430
1428
1434
1435
1434
1429
1434
1432
1434
1428
1432
1428
1434
1426
1434
1433
1429
1428
1434
1428
1434
1428
1437
1427
1440
1439
1432
1436
1428
1432
1427
1444
1429
1434
1428
1441
1428
1434
1430
1435
1427
1434
1428
1428
1434
1428
1434
1431
1438
1430
1439
1433
1428
1427
1435
1426
1437
1428
1434
1428
1428
1432
1437
1431
1429
1434
1435
1433
1428
1439
1444
1437
1421
1439
1427
1440
1434
1434
1426
1437
1427
1428
1426
1437
1426
1437
1441
1426
1436
1435
1437
1434
1432
1427
1431
1427
1436
1431
1435
1428
1437
1435
1429
1431
1444
1426
1434
1434
1434
1426
1440
1437
1433
1434
1431
1444
1435
1424
1432
1442
1427
1442
1433
1437
1427
1431
1431
1431
1438
1428
1434
1428
1432
1435
1427
1439
1431
1439
1427
1437
1428
1436
1431
1436
1442
1429
1434
1427
1437
1434
1435
1427
1436
1434
1441
1423
1433
1434
1427
1443
1428
1433
1428
1428
1430
1432
1441
1434
1431
1426
1441
1430
1442
1439
1424
1434
1426
1438
1428
1437
1441
1430
1431
1434
1440
1465
1437
1435
1440
1431
1439
1432
1445
1432
1435
1433
1434
1428
1436
1432
1445
1436
1445
1430
1439
1438
1427
1434
1428
1436
1435
1434
1430
1435
1447
1424
1432
1430
1438
1432
1437
1435
1427
1432
1428
1432
1427
1428
1427
1428
1437
1428
1434
1428
1445
1432
1437
1422
1440
1427
1434
1431
1441
1433
1428
1437
1426
1434
1432
1437
1423
1435
1431
1426
1438
1432
1433
1428
1442
1436
1428
1428
1430
1427
1442
1426
1434
1428
1441
1428
1428
1435
1428
1435
1431
1441
1435
1445
1427
1440
1432
1434
1433
1441
1442
1423
1434
1428
1438
1429
1439
1434
1434
1431
1428
1430
1439
1428
1434
1434
1429
1434
1427
1439
1432
1435
1434
1434
1428
1438
1430
1444
1431
1447
1435
1433
1433
1431
1430
1437
1427
1440
1427
1430
1424
1437
1427
1439
1426
1442
1431
1426
1432
1438
1432
1441
1429
1434
1428
1434
1434
1428
1438
1426
1435
1429
1441
1440
1439
1426
1442
1426
1437
1435
1439
1433
1428
1436
1438
1433
1441
1437
1428
1431
1429
1437
1433
1432
1433
1443
1426
1436
1438
1428
1429
1427
1437
1427
1430
1429
1430
1435
1430
1440
1428
1426
1437
1423
1433
1431
1441
1432
1434
1427
1434
1436
1442
1427
1444
1434
1434
1430
1438
1429
1429
1432
1431
1435
1428
1438
1430
1434
1434
1428
1431
1426
1439
1431
1434
1430
1434
1429
1433
1431
1434
1432
1437
1438
1428
1431
1441
1426
1442
1426
1439
1434
1429
1426
1441
1429
1442
1426
1440
1434
1434
1429
1431
1435
1435
1429
1438
1428
1437
1433
1441
1433
1436
1426
1434
1436
14371438
1438
1442
1431
1428
1441
1435
1438
1434
1427
1429
1429
1435
1438
1427
1445
1441
1427
1439
1430
1439
1428
1442
1439
1434
1423
1434
1428
1434
1433
1434
1435
1434
1431
1436
1434
1437
1431
1436
1424
1434
1430
1434
1430
1441
1431
1442
1447
1428
1432
1431
1444
1431
1434
1439
1436
1432
1434
1434
1431
1428
1439
1431
1440
1434
1432
1435
1437
1426
1439
1435
1442
1428
1434
1434
1434
1429
1439
1445
1427
1432
1432
1434
1431
1433
1428
1434
1427
1429
1436
1430
1439
1428
1431
1427
1426
1434
1428
1445
1434
1436
1426
1428
1439
1435
1434
1438
1441
1423
1436
1426
1434
1431
1437
1433
1437
1438
1443
1440
1439
1430
1434
1428
1440
1431
1426
1429
1439
1431
1439
1434
1441
1428
1437
1444
1434
1439
1432
1434
1431
1439
1439
1432
1426
1442
1426
1440
1428
1435
1427
1447
1434
1433
1439
1428
1437
1424
1437
1435
1433
1438
1431
1428
1431
1440
1432
1429
1439
1430
1442
1431
1440
1428
1442
1439
1428
1428
1432
1428
1434
1438
1446
1437
1434
1423
1436
1429
1436
1431
1438
1428
1429
1435
1432
1440
1428
1434
1426
1436
1447
1432
1438
1433
1440
1434
1438
1428
1436
1433
1444
1435
1442
1426
1437
1432
1442
1431
1438
1430
1434
1428
1431
1434
1431
1427
1428
1428
1428
1432
1437
1439
1436
1429
1441
1434
1439
1428
1439
1434
1429
1436
1435
1450
1436
1437
1431
1439
1430
1439
1429
1439
1428
1433
1431
1431
1434
1438
1429
1439
1432
1441
1430
1437
1431
1432
1438
1430
1434
1431
1439
1431
1431
1431
1427
1439
1433
1433
1434
1433
1437
1433
1430
1441
1436
1441
1434
1434
1424
1439
1427
1432
1431
1430
1430
1431
1434
1428
1432
1427
1434
1427
1438
1436
1430
1439
1432
1434
1436
1441
1427
1428
1433
1439
1424
1434
1432
1440
1433
1439
1428
1434
1435
1428
1428
1441
1429
1428
1430
1437
1432
1430
1434
1438
1433
1431
1430
1437
1430
1440
1424
1434
1426
1433
1434
1425
1432
1426
1439
1431
1428
1427
1440
1429
1437
1434
1440
1428
1428
1430
1436
1428
1435
1430
1438
1429
1437
1433
1430
1432
1437
1431
1437
1435
1426
1434
1432
1442
1432
1441
1435
1431
1434
1439
1431
1437
1430
1442
1438
1438
1437
1428
1439
1427
1439
1434
1434
1433
1429
1439
1437
1440
1430
1431
1430
1432
1424
1432
1427
1434
1428
1434
1421
1435
1431
1430
1442
1427
1436
1428
1439
1431
1442
1430
1435
1433
1434
1428
1444
1440
1435
1429
1442
1438
1444
1426
1433
1430
1436
1428
1441
1436
1438
1431
1433
1427
1439
1435
1444
1434
1434
1435
1435
1438
1430
1439
1429
1439
1431
1431
1433
1428
1437
1434
1432
1432
1435
1433
1435
1428
1444
1430
1438
1429
1438
1428
1430
1426
1445
1430
1434
1429
1443
1439
1428
1435
1436
1428
1436
1431
1440
1432
1439
1431
1437
1428
1435
1430
1442
1434
1434
1432
1437
1432
1441
1433
1432
1427
1442
1428
1441
1431
1434
1431
1434
1438
1439
1432
1438
1426
1435
1434
1441
1440
1438
1430
1439
1428
1442
1430
1433
1428
1429
1432
1434
1429
1431
1424
1435
1441
1423
1435
1428
1442
1428
1434
1436
1442
1435
1431
1441
1428
1442
1426
1439
1437
1432
1437
1429
1439
1430
1435
1426
1436
1434
1428
1434
1427
1447
1429
1434
1441
1441
1432
1433
1426
1439
1431
1442
1438
1428
1441
1435
1439
1427
1435
1434
1433
1429
1438
1433
1440
1431
1437
1436
1428
1424
1442
1434
1413
1264
1201
1204
1160
1153
1159
1151
1157
1152
1167
1166
1209
1214
1229
1253
1254
1268
1273
1297
1345
1346
1372
1375
1389
1409
1398
1414
1451
1423
1426
1434
1480
1443
1442
1450
1445
1453
1473
1498
1452
1454
1467
1491
1450
1475
1494
1457
1458
1471
1506
1488
1500
1513
1465
1445
1477
1489
1527
1573
1479
1468
1460
1497
1508
1534
1566
1521
1459
1470
1500
1516
1535
1491
1444
1468
1484
1470
1423
1428
1438
1473
1426
1417
1418
1406
1415
1426
1405
1423
1424
1419
1434
1412
1426
1453
1430
1421
1446
1418
1428
1420
1436
1415
1425
1423
1420
1412
1421
1418
1424
1423
1423
1426
1428
1432
1432
1428
1434
1443
1436
1444
1464
1476
1442
1454
1479
1458
1447
1469
1447
1477
1447
1446
1458
1496
1455
1456
1462
1442
1445
1475
1465
1438
1444
1475
1488
1464
1480
1475
1458
1447
1477
1488
1451
1475
1470
1442
1440
1464
1497
1464
1435
1487
1440
1437
1447
1480
1480
1447
1441
1456
1441
1442
1469
1479
1439
1437
1450
1429
1439
1476
1447
1439
1434
1474
1464
1460
1468
1434
1453
1456
1430
1430
1431
1440
1456
1427
1420
1446
1423
1432
1428
1443
1426
1424
1437
1420
1435
1450
1441
1427
1428
1434
1420
1440
1411
1432
1416
1409
1408
1411
1415
1420
1410
1413
1414
1427
1418
1414
1421
1433
1425
1438
1428
1440
1441
1438
1444
1434
1442
1445
1431
1436
1435
1431
1432
1428
1435
1436
1446
1428
1447
1433
1446
1432
1434
1425
1423
1432
1424
1431
1426
1418
1417
1423
1418
1426
1429
1417
1418
1414
1421
1416
1414
1417
1423
1412
1417
1411
1414
1421
1421
1417
1417
1414
1415
1418
1420
1425
1429
1434
1423
1426
1423
1423
1412
1411
1407
1417
1417
1407
1419
1420
1427
1421
1429
1409
1426
1433
1426
1438
1437
1446
1435
1446
1433
1446
1436
1450
1447
1445
1443
1442
1437
1431
1444
1451
1437
1447
1441
1453
1450
1458
1450
1445
1448
1442
1440
1451
1441
1441
1441
1430
1442
1434
1445
1440
1445
1450
1441
1423
1427
1440
1428
1428
1434
1444
1436
1423
1424
1431
1439
1442
1440
1453
1446
1459
1456
1463
1464
1476
1473
1486
1484
1491
1493
1501
1500
1503
1500
1495
1491
1491
1492
1475
1491
1483
1490
1480
1482
1478
1466
1484
1471
1475
1466
1476
1458
1445
1435
1441
1429
1421
1414
1411
1413
1399
1401
1398
1406
1409
1405
1415
1410
1432
1423
1431
1417
1417
1417
1411
1389
1374
1373
1361
1362
1341
1347
1342
1338
1341
1348
1345
1363
1359
1377
1379
1392
1405
1407
1414
1412
1419
1433
1436
1441
1441
1439
1446
1447
1447
1445
1454
1446
1441
1445
1434
1442
1428
1434
1442
1437
1441
1447
1441
1445
1446
1453
1456
1458
1465
1464
1461
1470
1461
1472
1474
1464
1438
1439
1443
1440
1442
1443
1454
1459
1480
1485
1499
1497
1500
1494
1508
1497
1482
1486
1485
1483
1475
1478
1483
1481
1486
1481
1484
1478
1484
1480
1486
1480
1484
1472
1475
1476
1480
1475
1473
1490
1499
1521
1530
1499
1511
1539
1496
1499
1484
1491
1518
1503
1473
1478
1495
1462
1464
1476
1458
1434
1448
1451
1427
1424
1420
1432
1406
1406
1420
1399
1415
1391
1392
1379
1376
1379
1385
1380
1399
1420
1404
1411
1399
1418
1404
1411
1409
1416
1412
1420
1422
1428
1453
1429
1446
1438
1457
1467
1444
1434
1471
1492
1454
1471
1457
1438
1438
1468
1432
1435
1447
1417
1426
1428
1415
1425
1435
1417
1429
1417
1439
1415
1422
1427
1410
1447
1444
1428
1427
1434
1415
1428
1428
1423
1421
1435
1441
1423
1438
1443
1432
1424
1428
1441
1445
1423
1434
1426
1411
1438
1412
1409
1411
1406
1401
1428
1405
1415
1396
1409
1398
1409
1402
1414
1406
1423
1416
1410
1423
1405
1415
1408
1408
1401
1407
1396
1399
1399
1409
1409
1417
1411
1412
1426
1415
1428
1427
1417
1424
1429
1423
1421
1420
1417
1417
1429
1423
1415
1415
1423
1423
1423
1420
1423
1417
1423
1428
1440
1428
1450
1441
1441
1453
1441
1433
1417
1437
1434
1431
1434
1428
1445
1431
1424
1429
1430
1437
1430
1451
1459
1469
1448
1471
1486
1524
1531
1491
1497
1508
1493
1468
1456
1475
1488
1480
1445
1473
1497
1457
1429
1444
1453
1417
1437
1442
1416
1416
1423
1419
1400
1436
1412
1405
1434
1456
1475
1418
1452
1446
1420
1415
1432
1445
1404
1402
1424
1401
1396
1423
1437
1404
1409
1423
1447
1416
1432
1405
1406
1421
1404
1393
1409
1401
1411
1395
1400
1434
1396
1408
1425
1409
1437
1445
1424
1408
1437
1447
1409
1413
1420
1438
1429
1416
1431
1450
1423
1433
1409
1423
1443
1418
1417
1441
1438
1427
1423
1436
1451
1423
1428
1448
1429
1411
1404
1404
1403
1406
1403
1402
1393
1399
1388
1392
1385
1379
1382
1388
1379
1379
1382
1382
1388
1387
1401
1398
1396
1383
1371
1357
1357
1354
1341
1341
1345
1361
1357
1370
1374
1385
1382
1389
1396
1394
1393
1392
1397
1389
1395
1386
1381
1376
1365
1365
1369
1357
1360
1345
1344
1340
1329
1330
1314
1306
1306
1297
1292
1286
1281
1291
1300
1321
1322
1343
1374
1376
1396
1412
1423
1442
1430
1446
1452
1453
1464
1454
1470
1469
1486
1487
1509
1522
1526
1532
1532
1546
1541
1552
1543
1547
1538
1541
1527
1530
1511
1504
1505
1514
1500
1497
1497
1492
1490
1479
1479
1500
1497
1505
1514
1515
1520
1508
1505
1496
1497
1484
1490
1474
1476
1468
1452
1444
1449
1446
1450
1460
1467
1480
1469
1472
1463
1458
1461
1456
1450
1459
1450
1453
1450
1447
1452
1441
1445
1441
1455
1443
1460
1447
1455
1454
1458
1438
1457
1453
1475
1482
1499
1499
1506
1502
1499
1510
1497
1499
1497
1494
1492
1494
1494
1499
1515
1510
1499
1498
1505
1491
1464
1483
1465
1467
1470
1464
1453
1450
1430
1420
1395
1383
1368
1360
1347
1343
1343
1335
1341
1336
1343
1341
1357
1371
1368
1382
1379
1388
1376
1379
1379
1384
1382
1380
1379
1376
1365
1373
1364
1360
1362
1341
1352
1350
1347
1353
1360
1371
1360
1365
1353
1352
1348
1356
1349
1353
1341
1344
1346
1333
1327
1333
1337
1341
1349
1357
1350
1352
1349
1352
1350
1358
1363
1370
1367
1371
1365
1374
1375
1385
1389
1395
1398
1409
1406
1417
1417
1415
1419
1411
1434
1417
1418
1421
1424
1423
1417
1419
1412
1407
1404
1401
1395
1404
1401
1406
1399
1406
1416
1420
1412
1412
1440
1434
1428
1436
1420
1434
1427
1432
1429
1427
1437
1428
1443
1439
1449
1433
1423
1404
1407
1392
1391
1376
1382
1368
1363
1363
1364
1374
1376
1373
1379
1376
1374
1379
1374
1376
1385
1398
1396
1420
1417
1421
1430
1423
1435
1435
1434
1427
1433
1421
1428
1427
1434
1435
1450
1461
1461
1458
1471
1468
1486
1479
1481
1482
1487
1483
1491
1479
1485
1478
1481
1467
1458
1458
1450
1453
1450
1453
1446
1457
1469
1475
1464
1469
1467
1461
1449
1441
1431
1427
1417
1423
1420
1417
1423
1429
1421
1426
1423
1432
1421
1439
1432
1454
1452
1447
1456
1436
1450
1438
1452
1438
1431
1435
1439
1450
1445
1440
1454
1450
1444
1432
1433
1424
1428
1417
1414
1447
1444
1443
1442
1455
1453
1454
1438
1442
1435
1442
1447
1450
1449
1453
1450
1462
1462
1464
1467
1462
1464
1450
1473
1472
1480
1489
1483
1489
1479
1487
1481
1485
1474
1476
1464
1472
1458
1470
1491
1491
1482
1497
1494
1500
1500
1516
1516
1527
1524
1513
1510
1513
1510
1500
1489
1483
1486
1480
1488
1472
1467
1467
1470
1442
1458
1453
1463
1465
1474
1470
1469
1461
1451
1453
1437
1439
1438
1440
1439
1440
1447
1456
1445
1450
1447
1444
1447
1446
1437
1450
1442
1438
1439
1464
1494
1560
1582
1584
1602
1616
1620
1611
1613
1609
1612
1606
1599
1602
1588
1582
1576
1557
1546
1530
1535
1529
1524
1522
1517
1513
1501
1499
1497
1487
1486
1469
1462
1470
1452
1464
1456
1455
1456
1458
1460
1463
1473
1461
1464
1467
1467
1464
1455
1464
1459
1460
1458
1462
1447
1434
1426
1424
1423
1423
1412
1406
1405
1395
1393
1392
1399
1394
1403
1397
1387
1374
1356
1365
1364
1368
1344
1352
1340
1346
1350
1344
1348
1343
1338
1347
1345
1351
1346
1347
1357
1347
1349
1350
1352
1344
1346
1343
1359
1343
1348
1343
1340
1341
1330
1340
1334
1338
1330
1337
1329
1335
1335
1330
1342
1346
1350
1339
1352
1345
1343
1352
1357
1362
1355
1361
1358
1386
1376
1391
1392
1398
1393
1393
1397
1398
1397
1395
1403
1420
1426
1437
1435
1441
1447
1461
1445
1453
1439
1440
1427
1420
1437
1439
1482
1481
1500
1495
1497
1471
1454
1465
1447
1454
1435
1432
1421
1395
1376
1377
1360
1359
1353
1360
1358
1371
1369
1395
1397
1399
1405
1404
1410
1417
1410
1409
1401
1409
1412
1415
1423
1429
1433
1438
1435
1453
1445
1454
1444
1442
1434
1433
1434
1427
1441
1435
1434
1435
1424
1428
1424
1439
1420
1434
1428
1427
1436
1432
1439
1431
1438
1427
1430
1423
1401
1404
1410
1399
1409
1406
1415
1416
1400
1387
1397
1391
1382
1381
1371
1368
1358
1355
1345
1356
1347
1349
1346
1345
1341
1341
1352
1361
1361
1368
1359
1368
1376
1383
1387
1395
1393
1408
1416
1411
1417
1420
1426
1417
1428
1434
1430
1446
1442
1442
1441
1443
1453
1450
1469
1475
1488
1478
1483
1488
1486
1462
1469
1468
1451
1445
1433
1420
1412
1399
1392
1380
1383
1401
1405
1423
1442
1445
1466
1488
1489
1503
1520
1525
1531
1539
1552
1548
1543
1522
1538
1513
1511
1499
1498
1491
1489
1473
1463
1452
1450
1440
1458
1467
14811483
1489
1494
1493
1497
1494
1499
1494
1495
1495
1497
1492
1490
1486
1483
1479
1488
1475
1486
1478
1485
1479
1479
1478
1472
1473
1464
1475
1467
1468
1457
1455
1470
1456
1461
1457
1464
1458
1470
1452
1452
1456
1450
1451
1440
1445
1441
1434
1436
1443
1439
1446
1438
1448
1442
1447
1442
1432
1433
1441
1427
1440
1437
1446
1438
1442
1445
1444
1444
1441
1437
1443
1440
1448
1442
1446
1436
1437
1440
1428
1437
1436
1438
1432
1430
1423
1421
1426
1423
1420
1419
1419
1415
1421
1419
1417
1409
1401
1405
1398
1387
1390
1383
1381
1376
1371
1385
1374
1371
1368
1374
1374
1381
1371
1394
1385
1387
1395
1396
1415
1415
1417
1411
1417
1409
1416
1404
1410
1417
1416
1413
1415
1413
1400
1412
1403
1412
1406
1403
1399
1391
1391
1389
1391
1397
1396
1407
1412
1405
1413
1419
1411
1416
1413
1424
1417
1418
1420
1420
1439
1446
1434
1441
1442
1446
1440
1443
1436
1436
1444
1433
1438
1429
1423
1426
1418
1423
1412
1417
1412
1409
1410
1414
1410
1415
1415
1420
1406
1406
1417
1411
1423
1425
1419
1424
1435
1428
1435
1426
1430
1428
1435
1432
1450
1441
1445
1440
1437
1440
1444
1438
1445
1445
1438
1433
1431
1415
1411
1403
1402
1408
1404
1416
1436
1439
1445
1444
1450
1442
1437
1456
1434
1423
1421
1417
1421
1414
1417
1413
1405
1417
1419
1418
1426
1412
1412
1415
1422
1426
1423
1430
1424
1434
1429
1434
1428
1434
1431
1430
1423
1423
1415
1408
1409
1390
1393
1395
1387
1387
1397
1398
1405
1414
1417
1415
1420
1420
1419
1426
1439
1439
1456
1456
1458
1453
1461
1461
1457
1464
1455
1469
1458
1468
1466
1468
1458
1446
1454
1447
1444
1437
1439
1438
1439
1434
1441
1438
1437
1438
1432
1434
1428
1427
1419
1426
1423
1420
1423
1415
1420
1426
1406
1412
1404
1406
1401
1411
1412
1413
1419
1426
1415
1418
1415
1415
1411
1408
1411
1404
1409
1402
1397
1417
1411
1414
1412
1416
1413
1411
1410
1401
1386
1398
1376
1383
1372
1376
1374
1380
1387
1385
1379
1393
1383
1393
1395
1404
1405
1409
1414
1409
1409
1405
1412
1409
1404
1411
1400
1404
1414
1417
1418
1426
1426
1436
1430
1431
1426
1431
1428
1430
1423
1428
1420
1434
1425
1434
1433
1435
1432
1436
1437
1427
1437
1426
1438
1440
1434
1441
1431
1442
1437
1446
1440
1451
1453
1453
1445
1446
1439
1450
1438
1440
1428
1434
1435
1439
1436
1440
1441
1439
1450
1450
1454
1443
1461
1458
1460
1453
1461
1461
1467
1458
1471
1463
1470
1466
1460
1462
1461
1467
1458
1453
1458
1461
1458
1461
1452
1460
1453
1458
1446
1450
1452
1444
1441
1433
1442
1433
1431
1426
1423
1424
1431
1420
1423
1424
1429
1428
1427
1428
1426
1426
1426
1416
1416
1417
1417
1421
1426
1438
1426
1426
1426
1426
1434
1429
1426
1426
1438
1423
1434
1424
1428
1436
1438
1447
1428
1426
1435
1432
1447
1429
1436
1429
1430
1428
1432
1423
1427
1430
1434
1434
1432
1427
1434
1433
1436
1434
1439
1437
1441
1438
1440
1447
1444
1445
1447
1433
1438
1434
1439
1439
1442
1432
1442
1431
1441
1434
1428
1434
1437
1444
1434
1440
1436
1434
1442
1435
1441
1425
1444
1432
1433
1437
1420
1430
1424
1427
1420
1423
1426
1429
1424
1436
1429
1433
1419
1419
1427
1426
1426
1426
1426
1428
1438
1436
1429
1433
1417
1424
1432
1427
1431
1426
1430
1435
1424
1424
1428
1434
1426
1434
1431
1428
1432
1438
1428
1437
1439
1443
1431
1437
1435
1428
1434
1427
1422
1418
1417
1418
1420
1417
1412
1417
1420
1426
1425
1423
1424
1438
1430
1436
1427
1429
1422
1423
1422
1424
1426
1424
1418
1426
1427
1417
1422
1416
1423
1413
1415
1417
1416
1424
1415
1412
1420
1420
1415
1412
1412
1414
1419
1418
1456
1428
1422
1417
1412
1412
1406
1398
1405
1406
1412
1405
1404
1404
1405
1401
1409
1417
1414
1404
1402
1403
1406
1406
1411
1401
1406
1404
1420
1404
1406
1405
1405
1417
1405
1412
1409
1405
1406
1411
1420
1415
1427
1425
1424
1432
1435
1439
1438
1446
1446
1460
1462
1458
1461
1462
1462
1464
1470
1472
1461
1472
1469
1475
1461
1467
1464
1458
1473
1461
1468
1461
1469
1459
1470
1463
1462
1473
1467
1464
1467
1467
1469
1456
1449
1454
1450
1448
1446
1442
1434
1429
1426
1440
1433
1441
1433
1434
1430
1426
1434
1426
1432
1431
1434
1429
1431
1420
1414
1411
1417
1415
1415
1420
1415
1409
1412
1404
1409
1407
1417
1417
1409
1409
1398
1400
1406
1401
1389
1398
1404
1403
1404
1399
1402
1404
1403
1408
1409
1408
1396
1404
1403
1399
1395
1404
1406
1401
1397
1404
1402
1405
1401
1398
1401
1402
1403
1406
1404
1409
1414
1412
1415
1409
1409
1415
1412
1410
1415
1416
1401
1406
1389
1395
1381
1387
1373
1374
1379
1375
1365
1368
1363
1371
1358
1376
1374
1385
1382
1394
1388
1393
1410
1399
1415
1410
1411
1423
1414
1411
1423
1427
1437
1426
1426
1428
1435
1429
1427
1423
1423
1417
1422
1416
1426
1415
1411
1396
1404
1394
1392
1398
1382
1400
1395
1393
1406
1410
1404
1409
1398
1405
1406
1397
1400
1401
1409
1411
1406
1412
1420
1429
1417
1421
1430
1436
1440
1436
1439
1433
1442
1436
1434
1431
1436
1427
1428
1428
1445
1447
1446
1442
1452
1461
1462
1464
1464
1465
1465
1473
1464
1457
1469
1464
1461
1459
1468
1461
1464
1466
1455
1455
1458
1453
1447
1445
1445
1439
1455
1447
1450
1450
1454
1452
1458
1464
1460
1475
1465
1472
1464
1473
1469
1467
1458
1469
1464
1470
1464
1468
1467
1467
1462
1464
1454
1460
1451
1464
1469
1457
1463
1456
1463
1455
1463
1458
1463
1468
1463
1466
1457
1463
1456
1453
1456
1458
1456
1450
1459
1450
1445
1447
1437
1444
1437
1442
1428
1444
1425
1430
1428
1432
1428
1434
1429
1434
1430
1442
1438
1446
1433
1450
1442
1452
1438
1434
1452
1442
1449
1444
1445
1444
1447
1442
1447
1445
1447
1443
1450
1450
1450
1445
1442
1447
1453
1444
1445
1439
1443
1450
1440
1456
1439
1450
1446
1450
1455
1450
1445
1453
1453
1457
1450
1456
1458
1452
1441
1450
1450
1456
1447
1456
1449
1445
1447
1449
1447
1442
1450
1446
1434
1428
1433
1426
1443
1434
1445
1435
1435
1431
1439
1434
1439
1437
1437
1478
1443
1442
1442
1439
1440
1450
1439
1449
1442
1441
1445
1446
1458
1446
1454
1445
1456
1454
1445
1452
1450
1455
1452
1464
1480
1481
1488
1487
1492
1501
1494
1491
1478
1486
1483
1481
1475
1478
1465
1469
1444
1438
1444
1438
1439
1429
1436
1424
1420
1414
1420
1417
1423
1412
1415
1415
1413
1419
1417
1415
1421
1411
1414
1414
1423
1414
1426
1423
1418
1421
1429
1426
1428
1428
1438
1434
1441
1426
1442
1438
1431
1437
1448
1438
1444
1431
1440
1435
1423
1435
1427
1433
1428
1434
1428
1426
1427
1431
1430
1435
1423
1437
1425
1425
1423
1434
1424
1432
1420
1424
1424
1432
1420
1431
1418
1424
1423
1422
1435
1429
1420
1435
1427
1431
1423
1438
1434
1434
1434
1445
1447
1457
1441
1452
1443
1436
1430
1441
1426
1438
1421
1430
1426
1423
1418
1425
1426
1417
1415
1419
1424
1417
1412
1414
1429
1418
1422
1421
1418
1420
1418
1415
1417
1417
1420
1420
1421
1417
1420
1417
1420
1428
1423
1431
1427
1431
1415
1423
1437
1430
1431
1423
1431
1428
1426
1428
1434
1428
1432
1431
1431
1430
1438
1434
1437
1433
1438
1432
1444
1440
1439
1436
1441
1434
1438
1429
1441
1444
1428
1444
1437
1438
1437
1440
1438
1439
1434
1440
1440
1448
1438
1447
1441
1440
1440
1439
1444
1441
1441
1433
1445
1447
1438
1442
1437
1442
1429
1438
1434
1434
1450
1440
1445
1440
1445
1438
1447
1440
1441
1441
1439
1441
1435
1434
1434
1436
1433
1429
1427
1437
1432
1434
1431
1424
1430
1427
1434
1426
1429
1426
1423
1421
1441
1436
1448
1437
1446
1444
1452
1441
1454
1440
1426
1433
1444
1429
1430
1426
1428
1418
1417
1418
1423
1409
1423
1415
1415
1412
1409
1412
1406
1411
1414
1401
1395
1406
1411
1405
1412
1420
1418
1418
1420
1435
1417
1423
1428
1424
1421
1414
1423
1424
1418
1417
1420
1415
1409
1409
1412
1410
1417
1416
1421
1420
1417
1418
1423
1427
1425
1429
1430
1438
1428
1434
1435
1432
1436
1438
1435
1444
1441
1434
1450
1441
1445
1431
1434
1426
1428
1429
1422
1429
1423
1425
1420
1412
1413
1422
1418
1412
1412
1409
1420
1417
1411
1428
1417
1423
1426
1428
1429
1436
1434
1445
1435
1440
1440
1444
1445
1443
1443
1452
1447
1455
1456
1456
1445
1447
1447
1443
1437
1445
1434
1442
1434
1434
1431
1423
1429
1433
1435
1427
1431
1424
1429
1423
1431
1426
1431
1423
1433
1434
1423
1416
1423
1431
1429
1428
1429
1434
1428
1436
1433
1430
1432
1434
1435
1429
1438
1432
1439
1431
1438
1435
1438
1431
1427
1426
1432
1427
1429
1427
1431
1426
1426
1429
1428
1432
1429
1435
1420
1430
1426
1439
1431
1434
1433
1438
1434
1432
1429
1432
1431
1442
1435
1432
1428
1434
1441
1433
1431
1437
1445
1437
1428
1428
1429
1428
1428
1426
1430
1423
1427
1418
1422
1427
1423
1423
1420
1429
1434
1430
1438
1422
1428
1429
1423
1424
1431
1432
1434
1420
1423
1423
1422
1426
1431
1428
1432
1420
1438
1424
1433
1425
1434
1420
1421
1433
1420
1428
1426
1432
1426
1417
1417
1417
1428
1422
1418
1417
1428
1424
1423
1424
1421
1428
1427
1439
1428
1426
1421
1430
1429
1431
1427
1434
1422
1434
1421
1428
1423
1432
1423
1430
1427
1428
1426
1435
1432
1434
1430
1438
1436
1433
1424
1423
1429
1438
1431
1439
1436
1441
1442
1437
1436
1428
1440
1439
1428
1434
1445
1438
1445
1442
1438
1441
1444
1434
1442
1436
1438
1438
1447
1438
1441
1433
1439
1441
1444
1431
1440
1430
1430
1432
1431
1438
1430
1438
1431
1434
1428
1434
1428
1433
1427
1432
1426
1425
1428
1429
1428
1431
1427
1437
1429
1435
1426
1431
1427
1432
1431
1438
1428
1428
1428
1434
1428
1420
1440
1426
1434
1420
1435
1429
1435
1431
1434
1432
1435
1427
1437
1442
1442
1431
1434
1430
1427
1433
1427
1433
1430
1434
1432
1423
1432
1434
1429
1424
1439
1435
1431
1427
1439
1432
1441
1433
1442
1435
1440
1428
1433
1440
1439
1439
1435
1439
1432
1441
1428
1437
1426
1445
1428
1441
1426
1435
1427
1438
1440
1437
1435
1445
1434
1434
1432
1432
1428
1433
1435
1439
1428
1437
1439
1434
1428
1434
1434
1428
1441
1434
1441
1428
1441
1434
1423
1428
1435
1439
1427
1430
1429
1434
1432
1423
1434
1427
1429
1426
1428
1432
1420
1428
1429
1434
1420
1433
1428
1418
1424
1435
1434
1434
1426
1431
1437
1427
1440
1435
1437
1434
1445
1435
1442
1434
1442
1438
1443
1438
1441
1441
1442
1440
1447
1440
1437
1437
1441
1434
1442
1445
1439
1435
1447
1441
1438
1440
1440
1439
1434
1444
1427
1445
1434
1450
1439
1440
1439
1447
1440
1445
1434
1444
1434
1438
1428
1428
1426
1447
1437
1435
1436
1445
1440
1430
1444
1435
1440
1428
1439
1438
1430
1442
1433
1443
1440
1452
1450
1443
1450
1439
1442
1436
1446
1439
1439
1444
1437
1445
1435
1444
1438
1450
1441
1433
1434
1432
1441
1434
1440
1428
1436
1432
1429
1423
1428
1423
1432
1421
1420
1427
1423
1426
1419
1420
1420
1415
1413
1417
1423
1408
1412
1412
1417
1415
1415
1422
1421
1414
1421
1423
1415
1423
1431
1423
1425
1431
1423
1434
1427
1437
1436
1437
1434
1442
1442
1450
1445
1450
1447
1452
1445
1463
1453
1461
1452
1456
1452
1445
1437
1447
1440
1437
1428
1439
1428
1434
1428
1426
1427
1432
1425
1428
1424
1420
1420
1426
1419
1423
1432
1426
1426
1426
1423
1429
1424
1434
1424
1428
1427
1430
1429
1441
1428
1436
1428
1431
1428
1428
1423
1439
1432
1441
1436
1450
1445
1449
1451
1452
1453
1455
1446
1448
1445
1445
1428
1439
1441
1443
1428
1433
1421
1421
1412
1409
1415
1409
1412
1412
1402
1408
14121534
1538
1549
1553
1565
1564
1571
1574
1593
1617
1628
1642
1656
1662
1674
1689
1706
1710
1702
1708
1701
1710
1693
1662
1644
1639
1620
1604
1596
1559
1555
1526
1467
1442
1426
1394
1376
1348
1328
1303
1253
1241
1216
1206
1193
1179
1165
1152
1127
1119
1115
1116
1113
1114
1118
1112
1152
1154
1163
1181
1194
1223
1238
1312
1329
1357
1374
1404
1432
1437
1458
1501
1519
1529
1540
1552
1556
1569
1579
1603
1597
1613
1609
1604
1617
1609
1605
1598
1584
1582
1567
1562
1541
1536
1513
1488
1464
1439
1417
1401
1377
1371
1323
1312
1313
1303
1291
1286
1287
1283
1267
1268
1254
1254
1253
1248
1242
1250
1255
1253
1271
1274
1292
1284
1309
1311
1343
1358
1378
1390
1424
1431
1454
1467
1509
1522
1531
1549
1543
1556
1560
1568
1573
1568
1587
1590
1591
1585
1593
1593
1600
1595
1614
1620
1611
1631
1640
1654
1721
1760
1766
1806
1827
1827
1843
1846
1837
1831
1820
1806
1779
1760
1729
1720
1645
1619
1585
1551
1525
1494
1473
1444
1361
1341
1311
1289
1253
1224
1201
1171
1053
1012
974
946
903
860
829
791
747
739
730
736
749
764
781
817
907
944
975
1010
1048
1090
1109
1141
1214
1253
1271
1302
1319
1345
1368
1395
1431
1450
1469
1472
1504
1505
1516
1533
1532
1554
1549
1566
1560
1581
1573
1583
1586
1602
1596
1590
1605
1602
1597
1597
1591
1596
1591
1592
1585
1589
1588
1582
1585
1582
1585
1591
1590
1590
1604
