Time_ms,Green_lp,Red_lp,IR_lp,Off_lp,,,
0,1984.179848,3191.309925,2931.974595,1662.908267,,,
8.087,1986.4808,3195.446488,2932.414136,1661.493583,,,
16.174,1988.720741,3199.450029,2932.837981,1660.079179,,,
24.261,1990.846756,3203.231433,2933.246302,1658.699784,,,123.6552492
31.981,1992.718273,3206.549299,2933.623022,1657.452513,,,
40.068,1994.495387,3209.695441,2934.007306,1656.238589,,,
48.155,1996.02075,3212.398801,2934.382192,1655.163951,,,
56.242,1997.306649,3214.688023,2934.75159,1654.230764,,,
63.962,1998.290886,3216.457707,2935.101103,1653.490269,,,
72.049,1999.066094,3217.879797,2935.466492,1652.879733,,,
80.136,1999.610365,3218.915968,2935.833138,1652.423759,,,
88.223,1999.914961,3219.555507,2936.203376,1652.13459,,,
96.31,2000.037406,3219.896099,2936.578415,1651.977626,,,
104.03,2000.006124,3219.979211,2936.942254,1651.939906,,,
112.117,1999.853713,3219.870735,2937.330736,1651.996564,,,
120.204,1999.623079,3219.632609,2937.72681,1652.12147,,,
128.291,1999.345486,3219.3113,2938.131967,1652.295481,,,
136.011,1999.074188,3218.983575,2938.526153,1652.47908,,,
144.098,1998.81146,3218.656593,2938.946661,1652.669744,,,
152.185,1998.59873,3218.38251,2939.373262,1652.83703,,,
160.272,1998.450119,3218.177911,2939.802965,1652.967809,,,
167.992,1998.390159,3218.068822,2940.212111,1653.041151,,,
176.079,1998.409324,3218.035495,2940.633903,1653.062777,,,
184.166,1998.518157,3218.083061,2941.040718,1653.020645,,,
192.253,1998.71254,3218.196099,2941.42103,1652.913355,,,
200.34,1998.976036,3218.349661,2941.765625,1652.748977,,,
208.06,1999.285904,3218.513219,2942.042191,1652.537333,,,
216.147,1999.647239,3218.673238,2942.267524,1652.272074,,,
224.234,2000.028997,3218.794542,2942.407415,1651.968219,,,
232.321,2000.407449,3218.845793,2942.439704,1651.635313,,,
240.041,2000.747615,3218.815776,2942.366021,1651.30122,,,
248.128,2001.053611,3218.663774,2942.141877,1650.941863,,,
256.215,2001.294143,3218.388652,2941.773422,1650.583583,,,
264.302,2001.447969,3217.973448,2941.242683,1650.234715,,,
272.022,2001.493664,3217.43521,2940.571218,1649.919224,,,
280.109,2001.434497,3216.737463,2939.710426,1649.61165,,,
288.196,2001.236951,3215.886158,2938.66572,1649.338435,,,
296.283,2000.911175,3214.909766,2937.467678,1649.100889,,,
304.003,2000.472357,3213.867348,2936.185815,1648.912704,,,
312.09,1999.877724,3212.676107,2934.715685,1648.759804,,,
320.177,1999.160833,3211.409589,2933.147131,1648.649899,,,
328.264,1998.315597,3210.082713,2931.498482,1648.588826,,,
336.351,1997.370473,3208.726658,2929.811312,1648.569299,,,
344.071,1996.38638,3207.424822,2928.192652,1648.588049,,,
352.158,1995.288799,3206.078525,2926.524968,1648.642987,,,
360.245,1994.149316,3204.769218,2924.914087,1648.725627,,,
368.332,1992.989919,3203.525458,2923.40308,1648.831915,,,
376.052,1991.890837,3202.410337,2922.070257,1648.945907,,,
384.139,1990.772083,3201.337159,2920.817558,1649.072005,,,
392.226,1989.714858,3200.377673,2919.73511,1649.196947,,,
400.313,1988.736077,3199.532666,2918.821973,1649.314672,,,
408.033,1987.906661,3198.855146,2918.137897,1649.413689,,,
416.12,1987.152524,3198.269336,2917.597148,1649.501011,,,
424.207,1986.535573,3197.818656,2917.243273,1649.568221,,,
432.294,1986.069823,3197.504424,2917.071579,1649.613829,,,
440.014,1985.756161,3197.315226,2917.050414,1649.639755,,,
448.101,1985.589472,3197.245837,2917.187082,1649.647366,,,
456.188,1985.560392,3197.279968,2917.445155,1649.640885,,,
464.275,1985.667452,3197.411796,2917.812283,1649.62321,,,
472.362,1985.899543,3197.628439,2918.268295,1649.598859,,,
480.082,1986.21088,3197.892664,2918.760056,1649.573783,,,
488.169,1986.624676,3198.220651,2919.321467,1649.550116,,,
496.256,1987.093635,3198.575494,2919.903954,1649.532905,,,
504.343,1987.597993,3198.940601,2920.491181,1649.525872,,,
512.063,1988.089429,3199.27965,2921.039175,1649.532346,,,
520.15,1988.593791,3199.610177,2921.588763,1649.553759,,,
528.237,1989.063165,3199.89329,2922.095944,1649.59473,,,
536.324,1989.483778,3200.119769,2922.555596,1649.654485,,,
544.044,1989.825934,3200.27072,2922.941661,1649.730561,,,
552.131,1990.110391,3200.34976,2923.283931,1649.830946,,,
560.218,1990.320592,3200.350085,2923.565119,1649.95036,,,
568.305,1990.445495,3200.260053,2923.776104,1650.089962,,,
576.025,1990.49738,3200.102635,2923.920877,1650.237891,,,
584.112,1990.483431,3199.865409,2924.012968,1650.406281,,,
592.199,1990.40946,3199.565728,2924.049405,1650.584274,,,
600.286,1990.291118,3199.222134,2924.041327,1650.766768,,,
608.373,1990.137386,3198.848667,2923.993113,1650.948387,,,
616.093,1989.974171,3198.486093,2923.923726,1651.115597,,,
624.18,1989.797786,3198.11923,2923.836508,1651.278645,,,
632.267,1989.629827,3197.789341,2923.748179,1651.423068,,,
640.354,1989.480217,3197.512256,2923.671083,1651.546115,,,
648.074,1989.366708,3197.322273,2923.622712,1651.637492,,,
656.161,1989.282635,3197.207661,2923.607662,1651.70711,,,
664.248,1989.241155,3197.194377,2923.641247,1651.748688,,,
672.335,1989.247331,3197.293253,2923.735214,1651.763505,,,
680.055,1989.294209,3197.483374,2923.881125,1651.758329,,,
688.142,1989.393165,3197.797697,2924.107784,1651.735,,,
696.229,1989.534048,3198.207054,2924.40102,1651.702367,,,
704.316,1989.715486,3198.705797,2924.762264,1651.666696,,,
712.036,1989.923166,3199.254048,2925.168016,1651.637072,,,
720.123,1990.168276,3199.88172,2925.64346,1651.615837,,,
728.21,1990.439339,3200.552711,2926.167145,1651.611923,,,
736.297,1990.726882,3201.24315,2926.720603,1651.62659,,,
744.384,1991.025737,3201.937205,2927.291916,1651.661515,,,
752.104,1991.315914,3202.586248,2927.839329,1651.713398,,,
760.191,1991.619541,3203.240911,2928.401308,1651.781904,,,
768.278,1991.917232,3203.852936,2928.9336,1651.860961,,,
776.365,1992.20512,3204.418085,2929.42554,1651.942018,,,
784.085,1992.467251,3204.907445,2929.846004,1652.014291,,,
792.172,1992.724935,3205.363221,2930.22354,1652.075578,,,
800.259,1992.964705,3205.766068,2930.53653,1652.116143,,,
808.346,1993.182444,3206.112224,2930.7735,1652.125591,,,
816.066,1993.371162,3206.400221,2930.937672,1652.103811,,,
824.153,1993.547547,3206.661102,2931.046018,1652.044046,,,
832.24,1993.702095,3206.887382,2931.097631,1651.94455,,,
840.327,1993.837348,3207.088727,2931.108217,1651.809522,,,
848.414,1993.952285,3207.269777,2931.088815,1651.637918,,,
856.104,1994.046208,3207.430833,2931.061019,1651.448925,,,
864.191,1994.129989,3207.592583,2931.037767,1651.227908,,,
872.278,1994.200535,3207.750089,2931.040029,1650.991921,,,
880.365,1994.261299,3207.905362,2931.080919,1650.750042,,,
888.085,1994.311768,3208.051458,2931.175436,1650.52189,,,
896.172,1994.360475,3208.201369,2931.337586,1650.294084,,,
904.259,1994.407613,3208.345908,2931.57512,1650.086163,,,
912.346,1994.456699,3208.481962,2931.895525,1649.907341,,,
920.066,1994.507873,3208.602624,2932.271399,1649.76645,,,
928.153,1994.570374,3208.715571,2932.748354,1649.661418,,,
936.24,1994.644002,3208.815861,2933.29336,1649.597978,,,
944.327,1994.73218,3208.903738,2933.901821,1649.580026,,,
952.414,1994.838786,3208.981822,2934.565034,1649.609724,,,
960.104,1994.95759,3209.051919,2935.231756,1649.675988,,,
968.191,1995.106633,3209.12781,2935.965016,1649.788771,,,
976.278,1995.279333,3209.214135,2936.716023,1649.934801,,,
984.365,1995.478234,3209.320356,2937.476284,1650.109018,,,
992.085,1995.695047,3209.451964,2938.202378,1650.294361,,,
1000.172,1995.948021,3209.627196,2938.957458,1650.498124,,,
1008.259,1996.231748,3209.857261,2939.700696,1650.702106,,,
1016.346,1996.5423,3210.144449,2940.430292,1650.895501,,,
1024.433,1996.879412,3210.496136,2941.144376,1651.068285,,,
1032.123,1997.224089,3210.897416,2941.80758,1651.202031,,,
1040.21,1997.606579,3211.381706,2942.490255,1651.306386,,,
1048.297,1998.008656,3211.935535,2943.155348,1651.359831,,,
1056.384,1998.423304,3212.543439,2943.803843,1651.362425,,,
1064.104,1998.826234,3213.16584,2944.404978,1651.31343,,,
1072.191,1999.248696,3213.84721,2945.010879,1651.206203,,,
1080.278,1999.664329,3214.539322,2945.588694,1651.04916,,,
1088.365,2000.062406,3215.220263,2946.124886,1650.842003,,,
1096.085,2000.418615,3215.839457,2946.591199,1650.610249,,,
1104.172,2000.756073,3216.43232,2947.0169,1650.339814,,,
1112.259,2001.044483,3216.941012,2947.359731,1650.053672,,,
1120.346,2001.277912,3217.35161,2947.610724,1649.765091,,,
1128.433,2001.438024,3217.629363,2947.73912,1649.488121,,,
1136.123,2001.519779,3217.765785,2947.742402,1649.246148,,,
1144.21,2001.521032,3217.757224,2947.60166,1649.025096,,,
1152.297,2001.4256,3217.578185,2947.294293,1648.848926,,,
1160.384,2001.237354,3217.238866,2946.825025,1648.719527,,,
1168.104,2000.957536,3216.74632,2946.200146,1648.648469,,,
1176.191,2000.571227,3216.07787,2945.378628,1648.622986,,,
1184.278,2000.088424,3215.255928,2944.382081,1648.646712,,,
1192.365,1999.512524,3214.291202,2943.214177,1648.714411,,,
1200.452,1998.859833,3213.213179,2941.903037,1648.814023,,,
1208.172,1998.166888,3212.085938,2940.519425,1648.932018,,,
1216.259,1997.387203,3210.834824,2938.967456,1649.065612,,,
1224.346,1996.563155,3209.531565,2937.330899,1649.198372,,,
1232.433,1995.708326,3208.200831,2935.637405,1649.316826,,,
1240.123,1994.881276,3206.932069,2934.004245,1649.408618,,,
1248.21,1994.007775,3205.617509,2932.290698,1649.469405,,,
1256.297,1993.142182,3204.340819,2930.609751,1649.49091,,,
1264.384,1992.29344,3203.119726,2928.987863,1649.467351,,,
1272.104,1991.507171,3202.023842,2927.522986,1649.398675,,,
1280.191,1990.710201,3200.951204,2926.08496,1649.28444,,,
1288.278,1989.947772,3199.976783,2924.779837,1649.124348,,,
1296.365,1989.217064,3199.09538,2923.60652,1648.9299,,,
1304.452,1988.518541,3198.312014,2922.57679,1648.70802,,,
1312.172,1987.882348,3197.661792,2921.741119,1648.479664,,,
1320.259,1987.242969,3197.069676,2921.002918,1648.235248,,,
1328.346,1986.634,3196.578546,2920.422437,1647.997817,,,
1336.433,1986.051833,3196.17357,2919.976949,1647.779181,,,
1344.123,1985.524247,3195.866046,2919.673827,1647.598959,,,
1352.21,1984.999782,3195.621483,2919.474401,1647.450446,,,
1360.297,1984.506555,3195.445406,2919.374427,1647.347778,,,
1368.384,1984.053302,3195.340145,2919.370467,1647.303277,,,
1376.471,1983.641591,3195.292775,2919.437226,1647.314392,,,
1384.191,1983.293012,3195.297546,2919.554808,1647.377902,,,
1392.278,1982.98288,3195.35095,2919.720734,1647.499425,,,
1400.365,1982.728909,3195.443607,2919.913192,1647.667029,,,
1408.452,1982.54308,3195.573068,2920.121102,1647.877974,,,
1416.172,1982.426524,3195.720955,2920.321822,1648.107081,,,
1424.259,1982.371922,3195.895125,2920.526054,1648.367645,,,
1432.346,1982.38904,3196.080752,2920.716368,1648.638462,,,
1440.433,1982.470032,3196.268958,2920.890091,1648.909301,,,
1448.123,1982.610375,3196.442091,2921.036422,1649.157911,,,
1456.21,1982.812667,3196.610451,2921.173566,1649.403583,,,
1464.297,1983.067011,3196.75685,2921.296031,1649.627071,,,
1472.384,1983.366379,3196.872617,2921.409157,1649.82315,,,
1480.471,1983.698292,3196.955113,2921.519956,1649.992347,,,
1488.191,1984.039695,3196.994714,2921.630511,1650.125222,,,
1496.278,1984.410898,3196.996603,2921.758007,1650.238224,,,
1504.365,1984.787467,3196.956224,2921.903926,1650.325606,,,
1512.452,1985.159448,3196.873221,2922.075181,1650.389586,,,
1520.172,1985.503909,3196.761587,2922.262804,1650.434367,,,
1528.259,1985.844313,3196.611191,2922.490683,1650.465936,,,
1536.346,1986.160756,3196.438219,2922.746547,1650.488166,,,
1544.433,1986.449053,3196.250485,2923.029091,1650.504933,,,
1552.489,1986.704442,3196.059626,2923.334055,1650.520726,,,
1560.209,1986.922748,3195.882978,2923.641158,1650.538427,,,
1568.296,1987.120946,3195.717923,2923.974112,1650.563785,,,
1576.383,1987.294697,3195.582687,2924.310328,1650.598215,,,
1584.47,1987.447519,3195.487934,2924.643739,1650.643886,,,
1592.19,1987.5781,3195.44781,2924.953086,1650.700077,,,
1600.277,1987.705758,3195.45957,2925.264796,1650.771089,,,
1608.364,1987.828765,3195.541253,2925.558925,1650.856084,,,
1616.451,1987.952841,3195.690506,2925.836359,1650.95259,,,
1624.171,1988.075866,3195.899599,2926.086431,1651.054142,,,
1632.258,1988.212851,3196.192256,2926.335943,1651.168131,,,
1640.345,1988.35871,3196.552546,2926.578855,1651.286281,,,
1648.432,1988.514483,3196.986123,2926.82211,1651.404982,,,
1656.488,1988.677013,3197.480199,2927.073343,1651.519352,,,
1664.208,1988.837374,3198.008233,2927.330149,1651.621457,,,
1672.295,1989.006542,3198.614672,2927.626245,1651.71542,,,
1680.382,1989.173029,3199.263659,2927.954816,1651.793567,,,
1688.469,1989.332029,3199.950926,2928.326925,1651.850251,,,
1696.189,1989.473994,3200.630163,2928.723285,1651.883867,,,
1704.276,1989.609598,3201.356924,2929.184583,1651.895909,,,
1712.363,1989.729554,3202.087381,2929.693883,1651.883563,,,
1720.45,1989.83515,3202.810257,2930.243302,1651.850556,,,
1728.17,1989.922268,3203.480599,2930.803185,1651.800378,,,
1736.257,1990.00344,3204.152918,2931.413898,1651.734297,,,
1744.344,1990.077815,3204.783753,2932.039529,1651.658556,,,
1752.431,1990.150884,3205.360614,2932.666095,1651.57878,,,
1760.487,1990.227901,3205.879309,2933.278163,1651.500659,,,
1768.207,1990.312116,3206.311384,2933.838144,1651.432069,,,
1776.294,1990.416015,3206.698042,2934.386348,1651.37021,,,
1784.381,1990.54127,3207.013472,2934.883232,1651.321597,,,
1792.468,1990.69384,3207.254319,2935.315332,1651.288756,,,
1800.188,1990.864769,3207.424474,2935.668289,1651.270684,,,
1808.275,1991.076461,3207.5351,2935.961537,1651.266644,,,
1816.362,1991.317898,3207.591659,2936.185298,1651.273498,,,
1824.449,1991.588617,3207.601108,2936.340767,1651.288091,,,
1832.169,1991.873068,3207.574769,2936.428541,1651.304852,,,
1840.256,1992.19137,3207.52524,2936.473037,1651.320383,,,
1848.343,1992.527534,3207.464215,2936.475534,1651.327585,,,
1856.43,1992.872922,3207.406814,2936.455639,1651.321814,,,
1864.486,1993.219581,3207.365323,2936.428015,1651.298628,,,
1872.206,1993.546258,3207.353951,2936.411196,1651.255018,,,
1880.293,1993.876317,3207.377663,2936.417185,1651.187347,,,
1888.38,1994.183864,3207.452186,2936.467496,1651.092856,,,
1896.467,1994.463693,3207.578803,2936.572096,1650.974724,,,
1904.187,1994.69915,3207.752141,2936.733398,1650.841157,,,
1912.274,1994.905864,3207.9921,2936.978981,1650.681803,,,
1920.361,1995.072506,3208.284772,2937.300836,1650.508017,,,
1928.448,1995.192761,3208.632331,2937.710793,1650.322788,,,
1936.535,1995.27174,3209.023739,2938.199888,1650.131615,,,
1944.255,1995.311056,3209.432299,2938.737627,1649.946769,,,
1952.342,1995.31816,3209.889823,2939.371744,1649.753735,,,
1960.429,1995.300672,3210.366295,2940.062529,1649.563053,,,
1968.485,1995.265797,3210.852102,2940.801211,1649.376667,,,
1976.205,1995.227418,3211.318677,2941.539726,1649.201012,,,
1984.292,1995.19198,3211.800989,2942.333335,1649.019426,,,
1992.379,1995.173764,3212.268329,2943.13193,1648.839047,,,
2000.466,1995.180793,3212.716209,2943.921153,1648.658553,,,
2008.186,1995.222778,3213.118245,2944.65016,1648.485151,,,
2016.273,1995.306871,3213.511166,2945.376839,1648.302144,,,
2024.36,1995.437279,3213.871232,2946.052202,1648.118237,,,
2032.447,1995.617893,3214.193673,2946.65994,1647.93524,,,
2040.534,1995.84254,3214.47944,2947.195794,1647.755693,,,
2048.254,1996.098602,3214.710934,2947.622133,1647.591649,,,
2056.341,1996.399502,3214.910173,2947.977937,1647.431494,,,
2064.428,1996.725659,3215.059918,2948.231238,1647.288383,,,
2072.484,1997.064139,3215.150509,2948.367459,1647.169924,,,
2080.204,1997.388786,3215.182989,2948.396501,1647.080913,,,
2088.291,1997.71421,3215.142321,2948.297602,1647.022896,,,
2096.378,1998.011572,3215.025111,2948.077356,1647.001231,,,
2104.465,1998.266916,3214.821364,2947.730577,1647.019911,,,
2112.552,1998.462145,3214.516143,2947.248529,1647.083998,,,
2120.272,1998.58843,3214.134924,2946.677952,1647.183416,,,
2128.359,1998.636818,3213.621191,2945.950585,1647.333344,,,
2136.446,1998.599404,3212.999332,2945.110318,1647.523455,,,
2144.533,1998.469327,3212.267749,2944.163312,1647.751426,,,
2152.253,1998.248329,3211.462545,2943.163394,1648.002467,,,
2160.34,1997.926985,3210.526867,2942.039374,1648.291229,,,
2168.427,1997.502777,3209.494744,2940.842091,1648.603087,,,
2176.483,1996.991956,3208.393998,2939.600696,1648.926955,,,
2184.203,1996.424446,3207.284877,2938.380347,1649.243066,,,
2192.29,1995.753443,3206.084289,2937.088421,1649.571811,,,
2200.377,1995.020866,3204.867464,2935.801547,1649.890966,,,
2208.464,1994.231658,3203.656923,2934.541009,1650.19116,,,
2216.551,1993.403319,3202.475763,2933.323585,1650.467068,,,
2224.271,1992.586292,3201.394293,2932.216312,1650.702981,,,
2232.358,1991.714251,3200.333895,2931.133626,1650.915261,,,
2240.445,1990.837981,3199.356281,2930.134264,1651.093076,,,
2248.532,1989.968747,3198.485801,2929.239124,1651.231535,,,
2256.252,1989.154681,3197.755757,2928.481081,1651.330786,,,
2264.339,1988.327067,3197.103395,2927.794001,1651.401678,,,
2272.426,1987.535766,3196.572698,2927.223557,1651.440815,,,
2280.482,1986.787327,3196.150517,2926.759098,1651.455191,,,
2288.569,1986.088092,3195.838519,2926.404862,1651.447197,,,
2296.289,1985.471746,3195.627336,2926.157128,1651.425133,,,
2304.376,1984.88565,3195.486489,2925.985622,1651.391377,,,
2312.463,1984.369853,3195.416749,2925.89775,1651.351615,,,
2320.55,1983.92215,3195.397291,2925.874605,1651.310765,,,
2328.27,1983.569701,3195.416592,2925.907833,1651.274701,,,
2336.357,1983.275361,3195.45916,2925.983038,1651.243261,,,
2344.444,1983.060584,3195.513243,2926.088701,1651.221034,,,
2352.531,1982.930359,3195.566915,2926.212981,1651.210835,,,
2360.251,1982.874457,3195.609899,2926.337511,1651.211893,,,
2368.338,1982.894767,3195.63694,2926.464426,1651.225982,,,
2376.425,1982.981134,3195.641612,2926.579248,1651.25062,,,
2384.512,1983.127225,3195.619682,2926.675206,1651.283675,,,
2392.232,1983.315886,3195.569239,2926.742137,1651.319842,,,
2400.319,1983.548326,3195.487918,2926.786044,1651.357873,,,
2408.406,1983.807353,3195.37306,2926.796857,1651.390436,,,
2416.462,1984.074854,3195.229419,2926.777027,1651.412238,,,
2424.549,1984.339951,3195.057566,2926.726737,1651.418491,,,
2432.269,1984.575154,3194.869049,2926.650105,1651.403886,,,
2440.356,1984.793913,3194.653156,2926.546364,1651.366692,,,
2448.443,1984.9691,3194.421998,2926.419828,1651.302172,,,
2456.53,1985.095981,3194.184447,2926.278139,1651.213062,,,
2464.25,1985.167019,3193.958877,2926.134017,1651.106863,,,
2472.337,1985.183659,3193.734156,2925.980908,1650.97693,,,
2480.424,1985.147876,3193.529703,2925.832996,1650.835369,,,
2488.511,1985.058199,3193.359578,2925.699729,1650.688872,,,
2496.598,1984.926732,3193.232425,2925.588692,1650.546531,,,
2504.318,1984.77075,3193.15985,2925.510322,1650.421682,,,
2512.405,1984.586066,3193.148296,2925.467275,1650.311753,,,
2520.461,1984.394623,3193.202727,2925.466252,1650.227567,,,
2528.548,1984.208434,3193.337201,2925.518028,1650.17697,,,
2536.268,1984.04837,3193.537189,2925.61675,1650.160811,,,
2544.355,1983.910252,3193.82331,2925.774837,1650.178794,,,
2552.442,1983.815064,3194.189742,2925.992805,1650.23263,,,
2560.529,1983.765969,3194.624897,2926.264483,1650.315278,,,
2568.249,1983.772124,3195.105965,2926.578064,1650.418392,,,
2576.336,1983.831289,3195.665106,2926.955464,1650.541966,,,
2584.423,1983.94475,3196.274071,2927.380507,1650.673692,,,
2592.51,1984.111606,3196.925705,2927.851112,1650.803541,,,
2600.597,1984.320888,3197.607515,2928.358514,1650.923039,,,
2608.317,1984.557031,3198.28171,2928.876734,1651.018246,,,
2616.404,1984.830186,3199.003021,2929.447947,1651.092868,,,
2624.46,1985.119602,3199.731102,2930.04245,1651.136825,,,
2632.547,1985.417041,3200.465876,2930.662256,1651.145375,,,
2640.267,1985.698318,3201.166551,2931.269983,1651.123867,,,
2648.354,1985.98025,3201.895466,2931.922434,1651.067581,,,
2656.441,1986.242671,3202.616285,2932.585901,1650.984544,,,
2664.528,1986.479726,3203.326137,2933.25722,1650.879646,,,
2672.615,1986.68471,3204.021007,2933.932466,1650.759034,,,
2680.335,1986.852001,3204.66965,2934.576538,1650.637246,,,
2688.422,1986.992474,3205.328468,2935.24553,1650.509215,,,
2696.509,1987.101748,3205.965034,2935.903805,1650.387595,,,
2704.596,1987.181885,3206.576443,2936.546241,1650.277561,,,
2712.316,1987.232498,3207.131379,2937.1375,1650.188873,,,
2720.403,1987.265728,3207.683875,2937.731756,1650.113572,,,
2728.459,1987.281088,3208.198444,2938.289323,1650.060518,,,
2736.546,1987.285719,3208.680342,2938.812749,1650.02767,,,
2744.266,1987.284649,3209.107125,2939.275247,1650.014766,,,
2752.353,1987.283312,3209.51763,2939.715891,1650.019919,,,
2760.44,1987.286695,3209.895638,2940.115014,1650.040317,,,
2768.527,1987.300822,3210.240059,2940.468228,1650.075181,,,
2776.614,1987.329836,3210.557178,2940.781268,1650.120998,,,
2784.334,1987.374994,3210.838139,2941.045909,1650.17327,,,
2792.421,1987.445835,3211.113193,2941.290564,1650.236035,,,
2800.508,1987.541091,3211.375125,2941.51159,1650.305394,,,
2808.595,1987.665771,3211.627667,2941.714921,1650.38184,,,
2816.315,1987.811392,3211.865043,2941.902423,1650.461267,,,
2824.402,1987.992121,3212.113486,2942.10048,1650.551948,,,
2832.458,1988.201518,3212.364593,2942.310098,1650.651446,,,
2840.545,1988.436347,3212.622604,2942.540248,1650.760624,,,
2848.632,1988.695256,3212.889529,2942.800984,1650.881161,,,
2856.352,1988.959331,3213.153634,2943.083138,1651.006803,,,
2864.439,1989.249152,3213.440988,2943.418192,1651.149832,,,
2872.526,1989.547035,3213.740731,2943.799994,1651.305293,,,
2880.613,1989.84639,3214.051971,2944.225156,1651.471554,,,
2888.333,1990.127688,3214.36123,2944.675522,1651.640716,,,
2896.42,1990.412116,3214.69717,2945.188136,1651.826906,,,
2904.507,1990.681153,3215.045796,2945.739509,1652.021053,,,
2912.594,1990.928873,3215.408723,2946.326945,1652.221761,,,
2920.314,1991.145325,3215.767796,2946.91264,1652.417025,,,
2928.401,1991.346588,3216.160626,2947.549898,1652.623501,,,
2936.457,1991.524219,3216.569179,2948.200241,1652.82813,,,
2944.544,1991.681561,3216.998815,2948.863365,1653.029538,,,
2952.631,1991.821074,3217.452283,2949.531267,1653.222465,,,
2960.351,1991.944645,3217.906806,2950.16851,1653.396179,,,
2968.438,1992.069958,3218.411054,2950.83113,1653.56102,,,
2976.525,1992.199615,3218.942772,2951.485396,1653.705235,,,
2984.612,1992.341064,3219.502075,2952.128482,1653.824719,,,
2992.332,1992.496234,3220.062385,2952.728191,1653.909333,,,
3000.419,1992.683167,3220.670125,2953.341186,1653.968024,,,
3008.506,1992.903625,3221.295599,2953.933695,1653.98944,,,
3016.593,1993.157766,3221.928138,2954.503953,1653.975374,,,
3024.313,1993.431869,3222.528788,2955.024009,1653.929049,,,
3032.4,1993.751178,3223.139286,2955.53563,1653.845569,,,
3040.456,1994.093389,3223.715292,2956.00826,1653.733223,,,
3048.543,1994.454723,3224.237988,2956.431289,1653.592254,,,
3056.63,1994.82055,3224.68858,2956.794566,1653.430697,,,
3064.35,1995.162371,3225.034661,2957.074386,1653.262401,,,
3072.437,1995.495563,3225.281091,2957.275591,1653.077057,,,
3080.524,1995.790586,3225.403069,2957.376595,1652.889229,,,
3088.611,1996.025404,3225.368716,2957.347697,1652.704949,,,
3096.331,1996.181398,3225.186572,2957.190553,1652.537281,,,
3104.418,1996.259212,3224.829213,2956.874959,1652.37439,,,
3112.505,1996.228732,3224.283961,2956.37943,1652.229282,,,
3120.592,1996.089883,3223.568299,2955.711244,1652.102494,,,
3128.312,1995.836476,3222.712192,2954.887199,1652.001753,,,
3136.399,1995.44938,3221.658429,2953.842434,1651.915957,,,
3144.455,1994.937343,3220.46109,2952.618098,1651.850003,,,
3152.542,1994.291232,3219.124367,2951.203685,1651.802628,,,
3160.629,1993.532709,3217.690021,2949.637426,1651.769765,,,
3168.349,1992.702531,3216.247179,2948.00571,1651.750408,,,
3176.436,1991.744518,3214.695494,2946.19084,1651.738284,,,
3184.523,1990.711799,3213.132031,2944.295829,1651.731211,,,
3192.61,1989.621996,3211.592904,2942.353962,1651.725465,,,
3200.33,1988.553698,3210.170539,2940.492984,1651.718187,,,
3208.417,1987.425194,3208.76766,2938.573969,1651.705279,,,
3216.504,1986.311953,3207.472639,2936.721469,1651.684925,,,
3224.591,1985.234562,3206.306619,2934.968435,1651.655381,,,
3232.311,1984.264152,3205.34344,2933.430626,1651.616616,,,
3240.398,1983.316965,3204.483684,2931.970366,1651.565938,,,
3248.454,1982.469054,3203.808546,2930.716244,1651.504108,,,
3256.541,1981.717028,3203.300656,2929.662267,1651.432656,,,
3264.628,1981.070155,3202.960901,2928.826156,1651.353292,,,
3272.348,1980.562399,3202.80139,2928.258987,1651.271632,,,
3280.435,1980.129081,3202.775452,2927.877693,1651.182795,,,
3288.522,1979.804347,3202.899098,2927.739417,1651.092565,,,
3296.609,1979.5704,3203.143554,2927.814951,1651.003243,,,
3304.329,1979.421766,3203.473863,2928.072959,1650.920183,,,
3312.416,1979.33524,3203.907409,2928.529213,1650.836647,,,
3320.503,1979.298923,3204.402856,2929.133276,1650.756404,,,
3328.59,1979.302736,3204.945679,2929.870827,1650.67903,,,
3336.677,1979.328919,3205.511752,2930.698793,1650.602658,,,
3344.397,1979.363574,3206.05756,2931.543639,1650.528797,,,
3352.453,1979.39866,3206.614109,2932.448831,1650.447839,,,
3360.54,1979.424712,3207.145666,2933.346762,1650.360501,,,
3368.627,1979.433945,3207.631586,2934.197419,1650.263861,,,
3376.347,1979.424626,3208.043447,2934.938355,1650.161779,,,
3384.434,1979.394851,3208.410826,2935.615308,1650.043737,,,
3392.521,1979.344526,3208.699192,2936.158788,1649.913844,,,
3400.608,1979.278596,3208.910995,2936.565665,1649.774685,,,
3408.695,1979.20013,3209.035099,2936.809956,1649.628137,,,
3416.415,1979.119541,3209.076301,2936.89566,1649.485541,,,
3424.502,1979.034562,3209.041824,2936.834372,1649.337733,,,
3432.589,1978.955645,3208.928035,2936.616128,1649.197924,,,
3440.676,1978.887524,3208.751208,2936.271349,1649.071109,,,
3448.396,1978.83836,3208.527764,2935.830844,1648.96946,,,
3456.452,1978.80636,3208.254662,2935.287703,1648.888253,,,
3464.539,1978.796551,3207.952987,2934.682162,1648.837269,,,
3472.626,1978.812371,3207.639847,2934.045646,1648.824366,,,
3480.346,1978.848496,3207.345746,2933.438817,1648.846115,,,
3488.433,1978.910151,3207.060709,2932.835196,1648.911602,,,
3496.52,1978.9912,3206.813472,2932.290069,1649.01668,,,
3504.607,1979.088327,3206.617436,2931.826046,1649.159627,,,
3512.694,1979.197852,3206.491479,2931.473326,1649.33921,,,
3520.414,1979.308324,3206.437338,2931.240722,1649.535515,,,
3528.501,1979.426039,3206.467172,2931.131353,1649.763077,,,
3536.588,1979.540811,3206.582877,2931.152417,1650.001921,,,
3544.675,1979.649035,3206.784963,2931.30178,1650.242942,,,
3552.395,1979.742371,3207.064863,2931.569896,1650.464297,,,
3560.482,1979.829336,3207.432946,2931.955662,1650.678967,,,
3568.569,1979.903077,3207.880157,2932.448953,1650.86385,,,
3576.656,1979.965091,3208.390762,2933.025569,1651.012309,,,
3584.376,1980.014835,3208.927094,2933.638673,1651.114794,,,
3592.432,1980.05885,3209.527823,2934.330202,1651.172892,,,
3600.519,1980.098726,3210.155887,2935.056505,1651.18425,,,
3608.606,1980.137552,3210.796891,2935.80223,1651.143488,,,
3616.693,1980.179241,3211.435144,2936.551639,1651.056786,,,
3624.413,1980.224586,3212.030616,2937.260688,1650.935801,,,
3632.5,1980.281687,3212.625467,2937.986221,1650.772856,,,
3640.587,1980.349928,3213.183886,2938.689526,1650.584345,,,
3648.674,1980.432473,3213.692994,2939.363339,1650.377145,,,
3656.394,1980.525052,3214.129725,2939.978155,1650.172468,,,
3664.481,1980.637038,3214.532707,2940.591833,1649.95976,,,
3672.568,1980.765922,3214.874783,2941.172738,1649.759564,,,
3680.655,1980.910135,3215.163931,2941.7258,1649.578971,,,
3688.375,1981.063838,3215.389376,2942.227295,1649.434251,,,
3696.431,1981.240124,3215.582267,2942.727929,1649.316231,,,
3704.518,1981.434139,3215.739895,2943.210001,1649.235987,,,
3712.605,1981.647821,3215.869865,2943.673694,1649.200054,,,
3720.692,1981.880714,3215.98516,2944.123863,1649.204709,,,
3728.412,1982.124896,3216.090342,2944.542273,1649.250307,,,
3736.499,1982.404564,3216.206188,2944.971793,1649.335952,,,
3744.586,1982.710909,3216.336444,2945.393954,1649.456704,,,
3752.673,1983.048946,3216.491684,2945.809427,1649.609745,,,
3760.393,1983.399316,3216.666011,2946.200971,1649.777107,,,
3768.48,1983.800735,3216.884811,2946.604878,1649.971005,,,
3776.567,1984.234527,3217.140438,2947.00215,1650.17503,,,
3784.654,1984.699482,3217.433578,2947.391716,1650.382711,,,
3792.374,1985.172409,3217.750962,2947.754127,1650.57755,,,
3800.43,1985.688285,3218.113929,2948.122337,1650.772241,,,
3808.517,1986.225936,3218.511504,2948.478873,1650.952055,,,
3816.604,1986.773772,3218.934828,2948.822336,1651.112979,,,
3824.691,1987.323437,3219.378886,2949.152653,1651.252481,,,
3832.411,1987.839336,3219.818547,2949.455148,1651.361734,,,
3840.498,1988.362082,3220.288931,2949.761969,1651.454035,,,
3848.585,1988.853401,3220.766313,2950.060188,1651.521392,,,
3856.672,1989.304848,3221.246796,2950.354761,1651.567156,,,
3864.392,1989.691603,3221.706551,2950.637029,1651.592794,,,
3872.479,1990.039221,3222.188298,2950.94059,1651.602017,,,
3880.566,1990.329791,3222.670159,2951.257751,1651.597568,,,
3888.653,1990.555193,3223.152846,2951.597432,1651.580686,,,
3896.74,1990.720444,3223.637346,2951.965639,1651.55458,,,
3904.46,1990.826728,3224.102203,2952.348337,1651.522966,,,
3912.547,1990.886691,3224.592028,2952.790045,1651.484179,,,
3920.634,1990.908485,3225.083593,2953.271605,1651.441815,,,
3928.721,1990.899677,3225.57458,2953.797327,1651.397305,,,
3936.441,1990.876096,3226.038652,2954.335397,1651.35481,,,
3944.528,1990.846753,3226.514527,2954.930837,1651.312304,,,
3952.615,1990.825313,3226.970008,2955.550469,1651.274988,,,
3960.702,1990.820662,3227.397713,2956.178766,1651.245239,,,
3968.422,1990.841101,3227.766413,2956.771296,1651.22782,,,
3976.509,1990.891985,3228.101149,2957.364723,1651.223763,,,
3984.596,1990.974472,3228.371651,2957.91014,1651.237021,,,
3992.683,1991.089329,3228.557737,2958.376311,1651.272031,,,
4000.403,1991.220986,3228.655903,2958.735543,1651.324677,,,
4008.49,1991.376579,3228.652843,2958.985,1651.403226,,,
4016.577,1991.537106,3228.541631,2959.092847,1651.502573,,,
4024.664,1991.690315,3228.317469,2959.042772,1651.62012,,,
4032.751,1991.818386,3227.965883,2958.802565,1651.752688,,,
4040.471,1991.906501,3227.526466,2958.409888,1651.886476,,,
4048.558,1991.942348,3226.946043,2957.800332,1652.028313,,,
4056.645,1991.909188,3226.2582,2957.005087,1652.164029,,,
4064.732,1991.796141,3225.472793,2956.034787,1652.287007,,,
4072.452,1991.593559,3224.633747,2954.942084,1652.383926,,,
4080.539,1991.288204,3223.686022,2953.664947,1652.461784,,,
4088.626,1990.870415,3222.673852,2952.260138,1652.508292,,,
4096.713,1990.346003,3221.617717,2950.765679,1652.523382,,,
4104.433,1989.750002,3220.582659,2949.282847,1652.509226,,,
4112.52,1989.024477,3219.485131,2947.700257,1652.464533,,,
4120.607,1988.216539,3218.39006,2946.120787,1652.396642,,,
4128.694,1987.332699,3217.31314,2944.576505,1652.309268,,,
4136.414,1986.439656,3216.314453,2943.160375,1652.215417,,,
4144.501,1985.471513,3215.309872,2941.758863,1652.112735,,,
4152.588,1984.49278,3214.363398,2940.470078,1652.012996,,,
4160.675,1983.527574,3213.477999,2939.29706,1651.921752,,,
4168.762,1982.60245,3212.667736,2938.262287,1651.844876,,,
4176.482,1981.778294,3211.967003,2937.403259,1651.787507,,,
4184.569,1980.994977,3211.3114,2936.636828,1651.745267,,,
4192.656,1980.322321,3210.746284,2936.016747,1651.722932,,,
4200.743,1979.76316,3210.263013,2935.522146,1651.716966,,,
4208.463,1979.356344,3209.885596,2935.171784,1651.725724,,,
4216.55,1979.0611,3209.571422,2934.915502,1651.745936,,,
4224.637,1978.898178,3209.336746,2934.761783,1651.774194,,,
4232.724,1978.873198,3209.184294,2934.707685,1651.807467,,,
4240.444,1978.952118,3209.101414,2934.727938,1651.840848,,,
4248.531,1979.140589,3209.082897,2934.824046,1651.875466,,,
4256.618,1979.407604,3209.121281,2934.9804,1651.908135,,,
4264.705,1979.730776,3209.208296,2935.187676,1651.938019,,,
4272.425,1980.070262,3209.331638,2935.42875,1651.963127,,,
4280.512,1980.430327,3209.487891,2935.712907,1651.986085,,,
4288.599,1980.769613,3209.663694,2936.025463,1652.004926,,,
4296.686,1981.065177,3209.84487,2936.356447,1652.019496,,,
4304.773,1981.300429,3210.019894,2936.698706,1652.029302,,,
4312.493,1981.445998,3210.167015,2937.029376,1652.032691,,,
4320.58,1981.5184,3210.291944,2937.372692,1652.029806,,,
4328.667,1981.494722,3210.372016,2937.705269,1652.018287,,,
4336.754,1981.382592,3210.399853,2938.020407,1651.997459,,,
4344.474,1981.201501,3210.373093,2938.299921,1651.968434,,,
4352.561,1980.941005,3210.279925,2938.561929,1651.927216,,,
4360.648,1980.632192,3210.127297,2938.79112,1651.876378,,,
4368.735,1980.291264,3209.913188,2938.980091,1651.815814,,,
4376.455,1979.959143,3209.662165,2939.122334,1651.750695,,,
4384.542,1979.624553,3209.361742,2939.231102,1651.676447,,,
4392.629,1979.328873,3209.036768,2939.295874,1651.597461,,,
4400.716,1979.08637,3208.707115,2939.32357,1651.515752,,,
4408.803,1978.918134,3208.39252,2939.314763,1651.432254,,,
4416.523,1978.834927,3208.125729,2939.279254,1651.351511,,,
4424.61,1978.831812,3207.897831,2939.22072,1651.265807,,,
4432.697,1978.923679,3207.747793,2939.14741,1651.178064,,,
4440.784,1979.095437,3207.681294,2939.069665,1651.087359,,,
4448.504,1979.332338,3207.713691,2938.999819,1650.996382,,,
4456.591,1979.63904,3207.849019,2938.940707,1650.895286,,,
4464.678,1979.989388,3208.087071,2938.904061,1650.787358,,,
4472.765,1980.366098,3208.432994,2938.901875,1650.671269,,,
4480.485,1980.72995,3208.84269,2938.934292,1650.553948,,,
4488.572,1981.096433,3209.351915,2939.015208,1650.42432,,,
4496.659,1981.430057,3209.918623,2939.145108,1650.290143,,,
4504.746,1981.717131,3210.523341,2939.325078,1650.153705,,,
4512.466,1981.929186,3211.117142,2939.549114,1650.024211,,,
4520.553,1982.087025,3211.734376,2939.829228,1649.89214,,,
4528.64,1982.165597,3212.325334,2940.157713,1649.767448,,,
4536.727,1982.168708,3212.87253,2940.525665,1649.652869,,,
4544.814,1982.101368,3213.364059,2940.925608,1649.550466,,,
4552.534,1981.970233,3213.763232,2941.332517,1649.46783,,,
4560.621,1981.78195,3214.11248,2941.773552,1649.396402,,,
4568.708,1981.547747,3214.380468,2942.223021,1649.343597,,,
4576.795,1981.285065,3214.57338,2942.671923,1649.309421,,,
4584.515,1981.021141,3214.694306,2943.093926,1649.294178,,,
4592.602,1980.745976,3214.757686,2943.521962,1649.298709,,,
4600.689,1980.485645,3214.774197,2943.93298,1649.322148,,,
4608.776,1980.255012,3214.752638,2944.322348,1649.366473,,,
4616.496,1980.072207,3214.711945,2944.673625,1649.427283,,,
4624.583,1979.926652,3214.661494,2945.021236,1649.509475,,,
4632.67,1979.839265,3214.617936,2945.3486,1649.611222,,,
4640.757,1979.806963,3214.593032,2945.661575,1649.728797,,,
4648.477,1979.833443,3214.599335,2945.950384,1649.854988,,,
4656.564,1979.916158,3214.645446,2946.24929,1649.997631,,,
4664.651,1980.050916,3214.738134,2946.550697,1650.147101,,,
4672.738,1980.236383,3214.887491,2946.862967,1650.298547,,,
4680.825,1980.460302,3215.089344,2947.191603,1650.446611,,,
4688.545,1980.706477,3215.335509,2947.52799,1650.579415,,,
4696.632,1980.989055,3215.644087,2947.908412,1650.704684,,,
4704.719,1981.289778,3215.998926,2948.320324,1650.811997,,,
4712.806,1981.603044,3216.397125,2948.769504,1650.895352,,,
4720.526,1981.907412,3216.805098,2949.228669,1650.953543,,,
4728.613,1982.228132,3217.255782,2949.743639,1650.988589,,,
4736.7,1982.547328,3217.717915,2950.286964,1650.999968,,,
4744.787,1982.863244,3218.181589,2950.852729,1650.990694,,,
4752.507,1983.160392,3218.614583,2951.408529,1650.964616,,,
4760.594,1983.467621,3219.050331,2951.997169,1650.926598,,,
4768.681,1983.770765,3219.456493,2952.584034,1650.882268,,,
4776.768,1984.071007,3219.826577,2953.159509,1650.838442,,,
4784.488,1984.355819,3220.14213,2953.691271,1650.801876,,,
4792.575,1984.653025,3220.425178,2954.219872,1650.774953,,,
4800.662,1984.949696,3220.663452,2954.716858,1650.761889,,,
4808.749,1985.245906,3220.853306,2955.174797,1650.766418,,,
4816.836,1985.541312,3221.000479,2955.593418,1650.788519,,,
4824.556,1985.821958,3221.107384,2955.958073,1650.824806,,,
4832.643,1986.113208,3221.189153,2956.302644,1650.878277,,,
4840.73,1986.400784,3221.253,2956.618178,1650.943017,,,
4848.817,1986.683046,3221.308929,2956.909178,1651.016644,,,
4856.537,1986.946636,3221.367488,2957.17353,1651.091497,,,
4864.624,1987.216082,3221.44532,2957.445377,1651.171771,,,
4872.711,1987.477549,3221.555398,2957.722771,1651.251327,,,
4880.798,1987.731926,3221.704697,2958.01443,1651.328598,,,
4888.518,1987.967838,3221.895718,2958.315471,1651.399169,,,
4896.605,1988.208673,3222.150158,2958.660048,1651.469663,,,
4904.692,1988.443735,3222.461303,2959.037542,1651.53684,,,
4912.779,1988.672817,3222.833,2959.452128,1651.600538,,,
4920.499,1988.886434,3223.231633,2959.87534,1651.658321,,,
4928.586,1989.103118,3223.690135,2960.343853,1651.714292,,,
4936.673,1989.310813,3224.171341,2960.824173,1651.763843,,,
4944.76,1989.506695,3224.656924,2961.301733,1651.804286,,,
4952.847,1989.684142,3225.120469,2961.753475,1651.829718,,,
4960.567,1989.833481,3225.522107,2962.143467,1651.837311,,,
4968.654,1989.959461,3225.86712,2962.478085,1651.820003,,,
4976.741,1990.048038,3226.109797,2962.713508,1651.772481,,,
4984.828,1990.093019,3226.229205,2962.82902,1651.691197,,,
4992.548,1990.081052,3226.187329,2962.786292,1651.573961,,,
5000.635,1990.011678,3225.984961,2962.584172,1651.413688,,,
5008.722,1989.86945,3225.585918,2962.184332,1651.210527,,,
5016.809,1989.650692,3224.990695,2961.584106,1650.969108,,,
5024.529,1989.368128,3224.244154,2960.826055,1650.70799,,,
5032.616,1988.982715,3223.263025,2959.820879,1650.406364,,,
5040.703,1988.514112,3222.114231,2958.63328,1650.087122,,,
5048.79,1987.954268,3220.803115,2957.262966,1649.758183,,,
5056.877,1987.309194,3219.365563,2955.742399,1649.430494,,,
5064.597,1986.621091,3217.907382,2954.180791,1649.126832,,,
5072.684,1985.823672,3216.319197,2952.453109,1648.829159,,,
5080.771,1984.966,3214.712335,2950.677073,1648.557366,,,
5088.858,1984.054318,3213.123418,2948.886438,1648.320295,,,
5096.578,1983.148644,3211.65846,2947.20112,1648.130192,,,
5104.665,1982.177541,3210.204724,2945.491663,1647.970573,,,
5112.752,1981.199203,3208.873363,2943.882724,1647.858027,,,
5120.839,1980.230622,3207.671084,2942.39098,1647.788012,,,
5128.559,1979.331426,3206.668775,2941.109067,1647.764425,,,
5136.646,1978.431204,3205.772026,2939.927312,1647.781828,,,
5144.733,1977.585751,3205.028501,2938.91726,1647.839344,,,
5152.82,1976.815826,3204.448301,2938.104769,1647.937957,,,
5160.54,1976.151424,3204.017203,2937.489639,1648.062076,,,
5168.627,1975.546785,3203.695456,2937.029511,1648.22278,,,
5176.714,1975.035089,3203.479481,2936.735257,1648.406987,,,
5184.801,1974.61576,3203.349257,2936.58942,1648.608229,,,
5192.888,1974.298945,3203.293317,2936.589419,1648.820238,,,
5200.608,1974.076112,3203.284457,2936.689475,1649.024449,,,
5208.695,1973.930131,3203.312474,2936.890591,1649.232577,,,
5216.782,1973.860312,3203.36356,2937.161851,1649.426644,,,
5224.869,1973.855133,3203.428455,2937.481228,1649.600367,,,
5232.589,1973.907308,3203.498168,2937.815119,1649.737339,,,
5240.676,1974.002724,3203.574645,2938.173471,1649.849839,,,
5248.763,1974.133669,3203.65332,2938.525268,1649.922889,,,
5256.85,1974.287117,3203.733573,2938.855956,1649.955766,,,
5264.57,1974.44546,3203.811669,2939.143541,1649.950843,,,
5272.657,1974.61524,3203.895121,2939.403402,1649.905335,,,
5280.744,1974.781003,3203.979309,2939.620906,1649.826661,,,
5288.831,1974.935417,3204.06239,2939.789606,1649.716973,,,
5296.551,1975.066939,3204.137592,2939.906751,1649.590745,,,
5304.638,1975.184455,3204.208374,2939.986813,1649.44317,,,
5312.725,1975.274893,3204.264253,2940.022954,1649.286904,,,
5320.812,1975.338495,3204.301353,2940.024953,1649.130285,,,
5328.899,1975.370841,3204.312364,2939.995728,1648.980421,,,
5336.619,1975.372156,3204.2943,2939.945879,1648.849722,,,
5344.706,1975.343752,3204.243637,2939.877611,1648.729711,,,
5352.793,1975.282328,3204.154831,2939.798653,1648.633348,,,
5360.88,1975.193657,3204.032778,2939.716658,1648.560382,,,
5368.6,1975.084207,3203.884996,2939.64107,1648.51577,,,
5376.687,1974.949139,3203.703985,2939.570551,1648.494415,,,
5384.774,1974.798952,3203.5036,2939.513363,1648.497406,,,
5392.861,1974.639778,3203.292223,2939.476511,1648.52554,,,
5400.581,1974.487452,3203.090985,2939.461449,1648.570546,,,
5408.668,1974.33588,3202.892384,2939.472856,1648.635979,,,
5416.755,1974.201348,3202.718264,2939.51357,1648.715266,,,
5424.842,1974.091181,3202.578515,2939.584677,1648.804337,,,
5432.562,1974.020607,3202.493429,2939.686462,1648.895041,,,
5440.649,1973.984395,3202.456807,2939.824474,1648.990908,,,
5448.736,1973.997203,3202.488535,2939.998968,1649.083057,,,
5456.823,1974.060975,3202.591801,2940.208281,1649.166717,,,
5464.91,1974.175042,3202.76641,2940.450535,1649.238397,,,
5472.63,1974.336974,3203.00967,2940.716182,1649.289977,,,
5480.717,1974.551019,3203.330197,2941.024178,1649.326276,,,
5488.804,1974.810411,3203.719974,2941.364868,1649.340584,,,
5496.891,1975.105515,3204.167238,2941.735483,1649.333296,,,
5504.611,1975.411564,3204.636348,2942.114533,1649.308096,,,
5512.698,1975.749547,3205.163001,2942.538837,1649.263619,,,
5520.785,1976.093095,3205.708128,2942.985315,1649.207326,,,
5528.872,1976.432152,3206.258922,2943.452853,1649.144483,,,
5536.592,1976.742156,3206.776075,2943.914546,1649.08602,,,
5544.679,1977.045802,3207.297974,2944.409796,1649.033599,,,
5552.766,1977.31815,3207.785306,2944.912612,1649.000662,,,
5560.853,1977.558543,3208.234063,2945.416759,1648.99269,,,
5568.573,1977.753507,3208.618091,2945.893959,1649.016869,,,
5576.66,1977.923444,3208.973463,2946.383738,1649.079208,,,
5584.747,1978.061605,3209.282737,2946.858417,1649.180838,,,
5592.834,1978.169777,3209.544671,2947.310568,1649.326305,,,
5600.921,1978.257742,3209.770588,2947.738973,1649.507765,,,
5608.641,1978.328077,3209.956623,2948.121347,1649.712675,,,
5616.728,1978.396255,3210.130396,2948.493762,1649.951599,,,
5624.815,1978.466274,3210.291547,2948.838943,1650.205972,,,
5632.902,1978.547083,3210.448769,2949.156101,1650.465414,,,
5640.622,1978.638653,3210.602769,2949.439636,1650.707342,,,
5648.709,1978.756314,3210.775155,2949.719183,1650.943465,,,
5656.796,1978.898301,3210.963347,2949.988268,1651.152551,,,
5664.883,1979.064562,3211.169175,2950.253326,1651.328503,,,
5672.603,1979.247961,3211.385016,2950.509407,1651.454974,,,
5680.69,1979.459333,3211.626879,2950.786389,1651.547301,,,
5688.777,1979.688074,3211.883119,2951.079004,1651.592987,,,
5696.864,1979.927146,3212.147373,2951.391565,1651.595731,,,
5704.584,1980.159082,3212.4012,2951.710541,1651.563113,,,
5712.671,1980.398897,3212.660586,2952.070658,1651.494109,,,
5720.758,1980.62966,3212.906418,2952.454605,1651.400237,,,
5728.845,1980.844751,3213.129401,2952.863538,1651.287057,,,
5736.932,1981.039827,3213.322369,2953.294241,1651.163757,,,
5744.652,1981.205845,3213.474879,2953.721997,1651.04342,,,
5752.739,1981.354587,3213.592467,2954.185276,1650.92174,,,
5760.826,1981.481105,3213.66983,2954.658052,1650.809377,,,
5768.913,1981.585563,3213.7036,2955.13671,1650.711281,,,
5776.633,1981.66872,3213.699019,2955.59485,1650.63309,,,
5784.72,1981.743446,3213.662545,2956.072808,1650.567285,,,
5792.807,1981.810312,3213.599697,2956.545452,1650.518873,,,
5800.894,1981.87621,3213.524837,2957.011858,1650.483434,,,
5808.614,1981.943936,3213.454022,2957.450485,1650.45937,,,
5816.701,1982.026061,3213.396763,2957.904439,1650.43917,,,
5824.788,1982.12439,3213.371528,2958.355185,1650.419072,,,
5832.875,1982.246764,3213.402307,2958.806755,1650.392471,,,
5840.962,1982.394522,3213.499086,2959.263947,1650.354577,,,
5848.682,1982.564405,3213.67257,2959.711344,1650.302242,,,
5856.769,1982.774276,3213.95062,2960.19752,1650.226561,,,
5864.856,1983.016591,3214.331671,2960.706238,1650.127894,,,
5872.943,1983.295891,3214.835644,2961.246766,1650.00193,,,
5880.663,1983.59154,3215.416387,2961.792241,1649.860551,,,
5888.75,1983.933201,3216.136705,2962.400658,1649.690891,,,
5896.837,1984.30274,3216.955866,2963.045687,1649.505966,,,
5904.924,1984.694969,3217.855629,2963.72361,1649.313252,,,
5912.644,1985.087606,3218.778847,2964.400084,1649.131045,,,
5920.731,1985.508631,3219.779952,2965.126381,1648.951672,,,
5928.818,1985.93261,3220.791717,2965.86021,1648.796445,,,
5936.905,1986.349213,3221.780308,2966.583471,1648.676326,,,
5944.625,1986.731537,3222.676462,2967.247775,1648.601107,,,
5952.712,1987.101477,3223.52399,2967.887585,1648.577157,,,
5960.799,1987.432271,3224.259292,2968.452047,1648.607673,,,
5968.886,1987.708047,3224.843351,2968.906782,1648.699515,,,
5976.973,1987.917059,3225.252505,2969.224017,1648.849416,,,
5984.693,1988.048351,3225.471796,2969.382973,1649.039331,,,
5992.78,1988.094031,3225.481867,2969.351318,1649.284176,,,
6000.867,1988.049123,3225.285499,2969.120415,1649.559022,,,
6008.954,1987.899849,3224.862184,2968.656332,1649.852561,,,
6016.674,1987.657938,3224.253157,2967.98807,1650.134639,,,
6024.761,1987.30514,3223.420381,2967.060813,1650.418217,,,
6032.848,1986.84016,3222.381117,2965.875773,1650.67102,,,
6040.935,1986.281048,3221.180798,2964.474872,1650.883376,,,
6048.655,1985.658468,3219.895133,2962.936083,1651.034689,,,
6056.742,1984.925927,3218.436747,2961.147071,1651.13239,,,
6064.829,1984.124736,3216.897579,2959.214129,1651.165923,,,
6072.916,1983.261309,3215.306729,2957.164757,1651.125672,,,
6080.636,1982.399261,3213.776932,2955.153443,1651.029736,,,
6088.723,1981.466036,3212.194299,2953.027829,1650.867352,,,
6096.81,1980.518503,3210.664526,2950.934227,1650.653664,,,
6104.897,1979.569536,3209.211087,2948.91285,1650.400442,,,
6112.984,1978.633758,3207.873055,2947.02386,1650.116719,,,
6120.704,1977.761407,3206.706331,2945.36141,1649.833429,,,
6128.791,1976.881847,3205.627174,2943.814799,1649.535462,,,
6136.878,1976.045392,3204.698836,2942.485858,1649.250515,,,
6144.965,1975.256461,3203.917172,2941.377411,1648.988999,,,
6152.685,1974.561264,3203.327908,2940.564156,1648.776518,,,
6160.772,1973.889223,3202.844469,2939.927302,1648.595551,,,
6168.859,1973.285203,3202.503644,2939.524329,1648.468874,,,
6176.946,1972.751058,3202.287454,2939.328842,1648.400231,,,
6184.666,1972.305359,3202.178777,2939.305506,1648.388104,,,
6192.753,1971.916694,3202.162063,2939.441679,1648.438309,,,
6200.84,1971.60014,3202.216573,2939.691729,1648.542647,,,
6208.927,1971.363058,3202.331969,2940.032445,1648.700739,,,
6216.647,1971.209711,3202.482319,2940.408151,1648.893382,,,
6224.734,1971.121298,3202.667576,2940.82534,1649.128452,,,
6232.821,1971.113717,3202.870804,2941.239131,1649.389036,,,
6240.908,1971.174498,3203.079696,2941.627737,1649.659978,,,
6248.995,1971.304759,3203.286138,2941.971484,1649.92927,,,
6256.715,1971.487178,3203.473775,2942.245334,1650.171878,,,
6264.802,1971.728744,3203.655935,2942.471832,1650.401291,,,
6272.889,1972.018349,3203.815966,2942.624581,1650.590333,,,
6280.976,1972.339702,3203.952595,2942.713149,1650.73603,,,
6288.696,1972.668036,3204.056232,2942.736115,1650.826561,,,
6296.783,1973.021373,3204.134431,2942.703428,1650.869784,,,
6304.87,1973.372833,3204.180916,2942.622083,1650.863904,,,
6312.957,1973.708195,3204.189583,2942.495402,1650.807902,,,
6320.677,1974.0054,3204.166732,2942.345793,1650.721011,,,
6328.764,1974.280456,3204.106786,2942.163994,1650.600755,,,
6336.851,1974.511549,3204.013311,2941.96641,1650.46414,,,
6344.938,1974.695675,3203.890735,2941.760789,1650.322854,,,
6352.658,1974.81761,3203.747689,2941.563873,1650.195798,,,
6360.745,1974.897001,3203.580748,2941.363646,1650.079592,,,
6368.832,1974.923472,3203.402195,2941.177057,1649.991063,,,
6376.919,1974.903768,3203.222373,2941.010988,1649.935724,,,
6385.006,1974.846675,3203.050315,2940.870233,1649.914215,,,
6392.726,1974.761129,3202.905794,2940.770463,1649.929941,,,
6400.813,1974.653566,3202.781643,2940.70267,1649.975228,,,
6408.9,1974.536299,3202.697858,2940.682408,1650.047139,,,
6416.987,1974.421737,3202.663047,2940.714588,1650.136079,,,
6424.707,1974.323814,3202.678946,2940.795238,1650.227951,,,
6432.794,1974.245897,3202.760005,2940.942743,1650.321257,,,
6440.881,1974.198571,3202.902377,2941.148829,1650.402404,,,
6448.968,1974.191351,3203.112747,2941.418928,1650.461683,,,
6456.688,1974.226332,3203.375713,2941.734645,1650.491166,,,
6464.775,1974.306829,3203.710692,2942.12045,1650.491082,,,
6472.862,1974.438459,3204.109907,2942.565445,1650.452789,,,
6480.949,1974.613373,3204.560452,2943.057641,1650.381317,,,
6489.036,1974.831321,3205.060147,2943.595067,1650.27695,,,
6496.756,1975.074009,3205.575779,2944.143834,1650.151908,,,
6504.843,1975.356368,3206.147187,2944.747955,1650.00214,,,
6512.93,1975.663219,3206.746418,2945.378827,1649.839954,,,
6521.017,1975.983974,3207.362523,2946.026847,1649.676131,,,
6528.737,1976.297522,3207.961077,2946.657267,1649.526907,,,
6536.824,1976.626546,3208.591569,2947.323775,1649.38802,,,
6544.911,1976.951008,3209.219663,2947.991265,1649.274211,,,
6552.998,1977.265023,3209.838117,2948.653594,1649.198553,,,
6560.718,1977.553589,3210.416002,2949.276968,1649.163135,,,
6568.805,1977.841149,3211.002424,2949.914605,1649.173821,,,
6576.892,1978.113603,3211.566196,2950.531645,1649.235036,,,
6584.979,1978.372187,3212.106037,2951.124827,1649.34492,,,
6592.699,1978.60538,3212.593592,2951.660377,1649.500819,,,
6600.786,1978.839116,3213.078987,2952.190353,1649.705626,,,
6608.873,1979.062618,3213.535824,2952.681815,1649.951375,,,
6616.96,1979.277915,3213.966008,2953.133144,1650.227766,,,
6625.047,1979.486632,3214.372684,2953.545622,1650.523722,,,
6632.767,1979.679588,3214.737752,2953.897474,1650.814898,,,
6640.854,1979.876302,3215.101561,2954.230189,1651.115985,,,
6648.941,1980.066612,3215.446198,2954.525546,1651.40083,,,
6657.028,1980.249837,3215.773383,2954.789298,1651.657295,,,
6664.748,1980.41775,3216.070914,2955.018643,1651.869231,,,
6672.835,1980.584141,3216.364552,2955.240553,1652.043743,,,
6680.922,1980.741113,3216.640868,2955.454594,1652.171248,,,
6689.009,1980.887257,3216.896595,2955.669544,1652.246542,,,
6696.729,1981.016473,3217.11929,2955.88542,1652.271884,,,
6704.816,1981.141878,3217.32939,2956.130284,1652.256981,,,
6712.903,1981.256459,3217.510159,2956.406438,1652.202574,,,
6720.99,1981.362592,3217.663807,2956.716742,1652.123179,,,
6728.71,1981.456601,3217.782759,2957.051666,1652.032243,,,
6736.797,1981.549175,3217.88003,2957.444189,1651.933529,,,
6744.884,1981.637394,3217.952943,2957.876504,1651.841547,,,
6752.971,1981.72239,3218.003023,2958.349499,1651.769059,,,
6761.058,1981.805873,3218.038897,2958.8513,1651.721897,,,
6768.778,1981.885024,3218.06522,2959.351205,1651.707755,,,
6776.865,1981.968303,3218.093088,2959.885412,1651.728404,,,
6784.952,1982.052596,3218.129118,2960.419639,1651.783787,,,
6793.039,1982.138876,3218.185306,2960.940705,1651.876528,,,
6800.759,1982.223561,3218.263475,2961.418327,1651.990752,,,
6808.846,1982.315965,3218.382295,2961.887798,1652.133684,,,
6816.933,1982.413559,3218.546499,2962.32069,1652.290797,,,
6825.02,1982.517723,3218.759727,2962.717075,1652.452874,,,
6832.74,1982.626867,3219.022425,2963.057341,1652.602271,,,
6840.827,1982.752557,3219.353815,2963.384612,1652.74474,,,
6848.914,1982.894276,3219.750729,2963.686874,1652.862328,,,
6857.001,1983.05547,3220.211777,2963.976435,1652.94651,,,
6864.721,1983.229237,3220.706229,2964.252174,1652.991841,,,
6872.808,1983.438155,3221.283461,2964.554847,1652.991998,,,
6880.895,1983.673286,3221.906631,2964.882245,1652.946644,,,
6888.982,1983.937793,3222.569445,2965.247183,1652.851027,,,
6897.069,1984.230868,3223.25732,2965.65774,1652.706971,,,
6904.789,1984.533627,3223.9228,2966.092191,1652.530213,,,
6912.876,1984.873781,3224.610318,2966.596493,1652.304078,,,
6920.963,1985.228397,3225.269125,2967.137256,1652.048728,,,
6929.05,1985.590564,3225.875031,2967.703806,1651.770957,,,
6936.77,1985.933256,3226.380254,2968.248659,1651.495528,,,
6944.857,1986.279338,3226.817251,2968.801308,1651.206871,,,
6952.944,1986.596221,3227.119939,2969.298773,1650.931247,,,
6961.031,1986.874683,3227.283556,2969.714646,1650.678251,,,
6968.751,1987.090159,3227.282332,2969.997441,1650.468881,,,
6976.838,1987.251389,3227.102796,2970.139198,1650.291764,,,
6984.925,1987.340635,3226.74104,2970.101734,1650.161323,,,
6993.012,1987.337435,3226.164655,2969.825413,1650.08862,,,
7000.732,1987.254511,3225.442415,2969.348965,1650.066104,,,
7008.819,1987.071417,3224.491829,2968.587694,1650.094405,,,
7016.906,1986.792396,3223.361831,2967.559869,1650.167717,,,
7024.993,1986.42468,3222.077493,2966.28293,1650.275638,,,
7033.08,1985.960268,3220.640448,2964.734122,1650.410213,,,
7040.8,1985.446213,3219.170053,2963.059916,1650.547958,,,
7048.887,1984.834584,3217.543232,2961.111479,1650.689552,,,
7056.974,1984.160706,3215.862656,2959.012069,1650.813403,,,
7065.061,1983.438021,3214.159626,2956.812744,1650.908964,,,
7072.781,1982.707105,3212.542819,2954.659703,1650.957862,,,
7080.868,1981.914791,3210.885132,2952.40614,1650.963536,,,
7088.955,1981.102073,3209.294109,2950.204389,1650.913368,,,
7097.042,1980.279186,3207.795043,2948.106625,1650.806854,,,
7104.762,1979.491625,3206.460854,2946.230501,1650.658135,,,
7112.849,1978.672522,3205.196451,2944.456377,1650.452726,,,
7120.936,1977.865433,3204.061931,2942.880309,1650.211718,,,
7129.023,1977.077713,3203.073731,2941.53634,1649.943353,,,
7136.743,1976.350042,3202.267875,2940.478193,1649.674392,,,
7144.83,1975.616949,3201.556234,2939.590372,1649.391303,,,
7152.917,1974.924673,3200.99162,2938.950208,1649.12038,,,
7161.004,1974.274063,3200.546397,2938.51192,1648.870515,,,
7169.091,1973.673709,3200.217637,2938.269869,1648.651204,,,
7176.811,1973.153005,3199.999014,2938.197271,1648.475951,,,
7184.898,1972.662124,3199.849213,2938.250478,1648.327431,,,
7192.985,1972.239258,3199.775075,2938.422881,1648.21941,,,
7201.072,1971.877736,3199.751692,2938.6708,1648.143328,,,
7208.792,1971.594753,3199.767316,2938.959282,1648.097863,,,
7216.879,1971.361624,3199.808993,2939.28985,1648.071227,,,
7224.966,1971.186992,3199.864394,2939.629021,1648.058126,,,
7233.053,1971.074573,3199.923657,2939.957764,1648.052007,,,
7240.773,1971.011829,3199.975875,2940.250988,1648.045879,,,
7248.86,1970.991085,3200.019645,2940.524974,1648.034283,,,
7256.947,1971.006835,3200.048055,2940.759123,1648.013967,,,
7265.034,1971.049585,3200.059949,2940.95286,1647.984144,,,
7273.121,1971.113826,3200.052072,2941.099355,1647.943838,,,
7280.841,1971.185123,3200.029352,2941.202814,1647.898866,,,
7288.928,1971.264382,3199.989746,2941.272744,1647.847578,,,
7297.015,1971.341533,3199.936688,2941.309178,1647.796856,,,
7305.102,1971.412253,3199.873293,2941.319536,1647.751214,,,
7312.822,1971.469124,3199.804233,2941.308394,1647.718803,,,
7320.909,1971.51731,3199.726248,2941.284602,1647.699948,,,
7328.996,1971.552385,3199.643653,2941.254345,1647.702784,,,
7337.083,1971.575495,3199.558046,2941.225752,1647.732047,,,
7344.803,1971.588932,3199.474724,2941.205799,1647.785929,,,
7352.89,1971.595935,3199.386913,2941.201115,1647.876549,,,
7360.977,1971.600093,3199.300175,2941.216702,1647.99903,,,
7369.064,1971.604844,3199.216701,2941.258947,1648.155745,,,
7376.784,1971.613576,3199.14306,2941.327975,1648.335643,,,
7384.871,1971.629565,3199.075157,2941.430254,1648.550627,,,
7392.958,1971.656421,3199.023506,2941.56851,1648.790823,,,
7401.045,1971.694461,3198.991609,2941.737289,1649.046151,,,
7409.132,1971.745282,3198.986732,2941.936254,1649.309496,,,
7416.852,1971.80589,3199.013908,2942.150525,1649.558589,,,
7424.939,1971.88041,3199.078083,2942.393712,1649.808236,,,
7433.026,1971.966567,3199.190372,2942.651836,1650.032286,,,
7441.113,1972.06121,3199.348429,2942.916037,1650.223654,,,
7448.833,1972.158463,3199.547306,2943.168202,1650.365221,,,
7456.92,1972.265692,3199.806405,2943.425696,1650.462476,,,
7465.007,1972.376644,3200.113049,2943.67221,1650.505915,,,
7473.094,1972.490434,3200.471192,2943.901901,1650.483677,,,
7480.814,1972.600583,3200.850156,2944.106415,1650.409844,,,
7488.901,1972.717399,3201.284443,2944.30454,1650.274573,,,
7496.988,1972.835774,3201.749156,2944.490142,1650.087279,,,
7505.075,1972.956096,3202.236282,2944.669149,1649.858447,,,
7512.795,1973.074008,3202.718256,2944.84133,1649.606042,,,
7520.882,1973.201335,3203.232339,2945.031971,1649.322301,,,
7528.969,1973.334138,3203.751363,2945.244455,1649.028888,,,
7537.056,1973.473689,3204.27011,2945.490631,1648.739726,,,
7545.143,1973.620483,3204.785171,2945.777863,1648.465523,,,
7552.863,1973.769173,3205.269786,2946.106096,1648.231644,,,
7560.95,1973.932971,3205.768926,2946.50589,1648.0212,,,
7569.037,1974.105528,3206.257031,2946.972388,1647.856855,,,
7577.124,1974.286094,3206.732714,2947.507352,1647.745437,,,
7584.844,1974.464444,3207.175286,2948.075584,1647.688263,,,
7592.931,1974.656913,3207.624063,2948.734653,1647.690697,,,
7601.018,1974.852854,3208.059078,2949.441893,1647.749227,,,
7609.105,1975.051089,3208.479068,2950.189311,1647.866888,,,
7616.825,1975.24135,3208.866028,2950.926013,1648.03209,,,
7624.912,1975.441174,3209.258528,2951.706148,1648.252586,,,
7632.999,1975.64188,3209.637569,2952.476732,1648.522571,,,
7641.086,1975.8445,3210.007271,2953.221822,1648.828611,,,
7648.806,1976.041667,3210.353768,2953.89295,1649.149536,,,
7656.893,1976.255038,3210.714389,2954.539202,1649.505848,,,
7664.98,1976.477973,3211.077013,2955.120544,1649.872479,,,
7673.067,1976.716234,3211.447999,2955.617446,1650.238529,,,
7681.154,1976.971441,3211.831431,2956.036953,1650.593154,,,
7688.874,1977.234788,3212.213988,2956.36025,1650.910968,,,
7696.961,1977.53375,3212.635843,2956.622616,1651.211938,,,
7705.048,1977.85567,3213.07968,2956.819871,1651.474943,,,
7713.135,1978.203439,3213.548994,2956.956431,1651.686558,,,
7720.855,1978.554116,3214.015602,2957.052053,1651.843199,,,
7728.942,1978.938931,3214.521584,2957.128964,1651.953631,,,
7737.029,1979.335028,3215.038088,2957.202259,1652.010797,,,
7745.116,1979.734993,3215.557271,2957.288635,1652.021246,,,
7752.836,1980.111857,3216.046268,2957.40322,1651.987212,,,
7760.923,1980.493324,3216.543759,2957.566208,1651.919511,,,
7769.01,1980.850954,3217.016538,2957.788221,1651.82511,,,
7777.097,1981.175218,3217.456847,2958.077691,1651.71525,,,
7784.817,1981.44963,3217.844897,2958.415692,1651.605319,,,
7792.904,1981.688301,3218.209794,2958.844176,1651.494273,,,
7800.991,1981.880108,3218.538176,2959.335288,1651.394344,,,
7809.078,1982.02076,3218.830712,2959.88684,1651.31165,,,
7817.165,1982.11218,3219.093946,2960.488475,1651.249345,,,
7824.885,1982.161155,3219.32682,2961.096199,1651.207297,,,
7832.972,1982.173694,3219.558664,2961.759497,1651.181358,,,
7841.059,1982.160833,3219.78921,2962.433655,1651.166203,,,
7849.146,1982.130863,3220.026826,2963.107156,1651.155543,,,
7856.866,1982.097257,3220.26747,2963.737184,1651.14091,,,
7864.953,1982.066553,3220.53654,2964.375188,1651.113515,,,
7873.04,1982.052212,3220.826742,2964.975624,1651.061937,,,
7881.127,1982.059948,3221.132093,2965.534158,1650.981765,,,
7888.847,1982.094218,3221.4322,2966.017702,1650.871401,,,
7896.934,1982.160836,3221.74362,2966.463409,1650.71645,,,
7905.021,1982.256189,3222.038826,2966.843255,1650.522562,,,
7913.108,1982.379939,3222.294044,2967.136195,1650.284668,,,
7921.195,1982.520722,3222.493472,2967.343096,1650.011581,,,
7928.915,1982.662736,3222.608853,2967.444927,1649.720143,,,
7937.002,1982.805729,3222.626887,2967.43741,1649.389001,,,
7945.089,1982.929799,3222.527926,2967.309614,1649.039875,,,
7953.176,1983.013475,3222.272282,2967.028487,1648.679476,,,
7960.896,1983.045337,3221.886375,2966.624204,1648.334241,,,
7968.983,1983.009108,3221.30971,2966.035722,1647.979494,,,
7977.07,1982.886512,3220.550525,2965.270159,1647.641116,,,
7985.157,1982.67238,3219.620147,2964.334529,1647.325466,,,
7992.877,1982.360209,3218.553708,2963.257613,1647.056454,,,
8000.964,1981.930429,3217.286103,2961.966617,1646.810092,,,
8009.051,1981.385538,3215.868803,2960.503932,1646.607747,,,
8017.138,1980.728505,3214.327529,2958.885566,1646.452944,,,
8024.858,1980.010515,3212.773107,2957.223365,1646.346887,,,
8032.945,1979.159925,3211.080083,2955.367654,1646.284934,,,
8041.032,1978.235377,3209.364538,2953.439179,1646.262885,,,
8049.119,1977.247366,3207.660815,2951.464503,1646.27757,,,
8057.206,1976.215137,3206.010389,2949.481874,1646.320187,,,
8064.926,1975.207697,3204.509814,2947.611957,1646.37646,,,
8073.013,1974.146578,3203.066925,2945.720565,1646.442353,,,
8081.1,1973.098761,3201.767297,2943.922432,1646.503344,,,
8089.187,1972.081845,3200.643524,2942.253388,1646.549106,,,
8096.907,1971.1569,3199.75696,2940.810937,1646.56919,,,
8104.994,1970.243884,3199.015601,2939.463015,1646.562143,,,
8113.081,1969.411658,3198.503245,2938.329557,1646.517723,,,
8121.168,1968.659785,3198.186526,2937.393333,1646.441293,,,
8128.888,1968.029583,3198.071003,2936.701245,1646.340093,,,
8136.975,1967.468363,3198.129959,2936.188032,1646.212647,,,
8145.062,1967.005633,3198.341558,2935.871334,1646.074685,,,
8153.149,1966.659753,3198.699286,2935.767894,1645.940475,,,
8160.869,1966.425165,3199.132346,2935.826709,1645.829529,,,
8168.956,1966.288443,3199.661904,2936.049643,1645.747928,,,
8177.043,1966.260168,3200.235247,2936.411213,1645.717745,,,
8185.13,1966.330284,3200.822923,2936.879797,1645.747668,,,
8193.217,1966.507424,3201.396166,2937.440823,1645.858283,,,
8200.937,1966.757659,3201.909834,2938.026866,1646.035776,,,
8209.024,1967.103484,3202.391988,2938.67279,1646.304924,,,
8217.111,1967.523987,3202.801084,2939.323774,1646.656718,,,
8225.198,1968.003347,3203.133429,2939.957943,1647.079293,,,
8232.918,1968.510275,3203.363458,2940.523205,1647.547281,,,
8241.005,1969.072595,3203.524611,2941.06148,1648.082926,,,
8249.092,1969.655072,3203.601405,2941.526856,1648.652942,,,
8257.179,1970.240866,3203.60084,2941.907454,1649.23797,,,
8264.899,1970.790353,3203.541888,2942.193422,1649.794406,,,
8272.986,1971.337792,3203.42093,2942.396734,1650.355452,,,
8281.073,1971.846864,3203.259035,2942.517464,1650.881446,,,
8289.16,1972.303452,3203.064641,2942.556546,1651.356879,,,
8296.88,1972.679314,3202.859524,2942.527029,1651.75155,,,
8304.967,1973.008961,3202.634543,2942.443764,1652.101411,,,
8313.054,1973.256501,3202.407171,2942.316161,1652.370022,,,
8321.141,1973.430324,3202.184537,2942.167435,1652.566261,,,
8329.228,1973.526074,3201.971761,2942.013194,1652.686585,,,
8336.948,1973.54554,3201.781729,2941.878639,1652.732386,,,
8345.035,1973.502282,3201.596959,2941.763834,1652.720043,,,
8353.122,1973.391551,3201.430516,2941.696431,1652.644808,,,
8361.209,1973.231614,3201.280442,2941.682038,1652.524743,,,
8368.929,1973.039709,3201.153508,2941.728313,1652.375456,,,
8377.016,1972.809851,3201.03802,2941.845625,1652.195209,,,
8385.103,1972.563993,3200.939678,2942.029686,1652.003714,,,
8393.19,1972.314718,3200.862532,2942.288069,1651.814142,,,
8400.91,1972.08587,3200.808216,2942.590219,1651.646343,,,
8408.997,1971.868037,3200.776346,2942.961983,1651.496467,,,
8417.084,1971.68476,3200.774587,2943.378664,1651.38405,,,
8425.171,1971.54272,3200.805457,2943.826094,1651.314045,,,
8432.891,1971.460037,3200.875672,2944.27213,1651.298866,,,
8440.978,1971.427499,3200.991488,2944.743294,1651.332824,,,
8449.065,1971.458662,3201.15874,2945.205877,1651.42202,,,
8457.152,1971.555748,3201.381806,2945.64601,1651.563506,,,
8465.239,1971.713443,3201.658568,2946.055394,1651.748235,,,
8472.959,1971.925756,3201.980153,2946.404372,1651.962149,,,
8481.046,1972.200069,3202.367429,2946.725842,1652.210673,,,
8489.133,1972.524713,3202.805302,2946.996354,1652.474665,,,
8497.22,1972.89108,3203.286509,2947.215648,1652.740251,,,
8504.94,1973.268328,3203.775039,2947.384516,1652.984596,,,
8513.027,1973.68558,3204.310396,2947.519279,1653.215629,,,
8521.114,1974.111365,3204.854597,2947.626414,1653.413737,,,
8529.201,1974.535589,3205.396273,2947.715544,1653.568131,,,
8536.921,1974.927911,3205.898453,2947.797313,1653.666885,,,
8545.008,1975.318025,3206.400663,2947.892181,1653.720612,,,
8553.095,1975.67269,3206.863489,2948.014269,1653.713609,,,
8561.182,1975.98865,3207.2847,2948.173306,1653.655783,,,
8568.902,1976.246158,3207.640962,2948.371927,1653.553914,,,
8576.958,1976.463938,3207.962134,2948.637355,1653.405844,,,
8585.045,1976.631665,3208.236235,2948.964244,1653.225032,,,
8593.132,1976.740085,3208.457184,2949.363098,1653.018638,,,
8601.219,1976.798572,3208.636154,2949.822537,1652.800782,,,
8608.939,1976.808298,3208.770527,2950.31596,1652.590791,,,
8617.026,1976.775694,3208.879893,2950.881117,1652.379129,,,
8625.113,1976.709175,3208.966197,2951.481146,1652.183058,,,
8633.2,1976.614007,3209.034959,2952.104602,1652.012648,,,
8640.92,1976.50911,3209.093391,2952.704188,1651.875121,,,
8649.007,1976.39328,3209.153216,2953.322069,1651.7617,,,
8657.094,1976.282948,3209.218753,2953.912675,1651.679652,,,
8665.181,1976.187024,3209.294851,2954.465197,1651.625066,,,
8673.268,1976.118045,3209.388539,2954.961287,1651.597741,,,
8680.958,1976.081792,3209.495707,2955.379343,1651.589575,,,
8689.045,1976.082563,3209.631766,2955.754391,1651.595953,,,
8697.132,1976.128184,3209.794624,2956.062617,1651.611717,,,
8705.219,1976.217817,3209.984235,2956.312277,1651.631551,,,
8712.939,1976.351285,3210.19565,2956.49621,1651.650442,,,
8721.026,1976.534179,3210.446482,2956.650323,1651.667302,,,
8729.113,1976.762398,3210.731067,2956.776093,1651.679403,,,
8737.2,1977.033105,3211.051597,2956.892021,1651.686393,,,
8745.287,1977.339721,3211.406877,2957.015725,1651.689572,,,
8752.977,1977.665259,3211.783142,2957.160724,1651.690587,,,
8761.064,1978.035239,3212.215753,2957.355823,1651.692348,,,
8769.151,1978.431804,3212.689574,2957.612576,1651.697615,,,
8777.238,1978.851398,3213.20549,2957.946384,1651.709472,,,
8784.958,1979.268645,3213.732947,2958.337703,1651.728138,,,
8793.045,1979.722543,3214.326113,2958.841923,1651.758058,,,
8801.132,1980.187771,3214.951329,2959.428315,1651.797008,,,
8809.219,1980.6613,3215.605162,2960.095733,1651.844049,,,
8816.939,1981.116553,3216.248665,2960.797948,1651.893517,,,
8825.026,1981.591763,3216.932394,2961.580277,1651.945759,,,
8833.113,1982.057532,3217.613498,2962.393299,1651.992012,,,
8841.2,1982.507284,3218.277311,2963.206583,1652.026436,,,
8849.287,1982.931826,3218.906911,2963.992906,1652.04192,,,
8856.977,1983.301247,3219.453479,2964.683365,1652.031669,,,
8865.064,1983.648224,3219.961619,2965.328525,1651.992269,,,
8873.151,1983.933324,3220.366841,2965.843241,1651.913747,,,
8881.238,1984.153176,3220.661062,2966.215631,1651.798455,,,
8888.958,1984.289334,3220.814973,2966.409087,1651.651722,,,
8897.045,1984.343357,3220.82234,2966.418268,1651.460967,,,
8905.132,1984.305871,3220.670259,2966.23071,1651.2387,,,
8913.219,1984.156066,3220.322398,2965.807646,1650.987215,,,
8921.306,1983.902497,3219.794158,2965.173892,1650.717815,,,
8929.026,1983.557289,3219.111379,2964.366203,1650.450881,,,
8937.113,1983.085707,3218.207154,2963.312917,1650.170927,,,
8945.2,1982.51365,3217.131587,2962.078194,1649.89947,,,
8953.287,1981.834445,3215.875114,2960.65987,1649.648386,,,
8961.007,1981.106409,3214.542772,2959.177529,1649.433732,,,
8969.094,1980.26609,3213.019191,2957.507507,1649.244013,,,
8977.181,1979.36084,3211.390866,2955.748731,1649.097662,,,
8985.268,1978.410019,3209.691297,2953.935932,1648.995873,,,
8992.958,1977.474978,3208.03036,2952.186211,1648.949412,,,
9001.045,1976.479851,3206.271965,2950.350506,1648.947976,,,
9009.132,1975.487922,3204.529794,2948.545527,1648.997381,,,
9017.219,1974.516989,3202.836807,2946.799237,1649.094525,,,
9025.306,1973.578609,3201.214411,2945.127118,1649.230425,,,
9033.026,1972.729933,3199.765846,2943.628785,1649.393222,,,
9041.113,1971.893983,3198.361622,2942.164865,1649.584807,,,
9049.2,1971.12208,3197.095765,2940.82683,1649.788458,,,
9057.287,1970.420537,3195.98519,2939.628025,1649.990681,,,
9065.007,1969.811415,3195.061707,2938.606089,1650.17208,,,
9073.094,1969.247822,3194.266777,2937.692048,1650.33383,,,
9081.181,1968.747504,3193.622123,2936.918166,1650.459283,,,
9089.268,1968.310644,3193.131131,2936.293121,1650.537203,,,
9097.324,1967.935636,3192.789861,2935.822417,1650.557749,,,
9105.044,1967.622691,3192.577033,2935.496829,1650.525745,,,
9113.131,1967.347027,3192.480129,2935.307102,1650.426421,,,
9121.218,1967.1132,3192.47955,2935.246427,1650.270361,,,
9129.305,1966.919929,3192.565243,2935.315347,1650.058991,,,
9137.025,1966.771813,3192.714018,2935.498319,1649.811285,,,
9145.112,1966.649138,3192.919041,2935.791376,1649.517277,,,
9153.199,1966.563661,3193.165507,2936.191044,1649.195646,,,
9161.286,1966.510367,3193.434008,2936.669713,1648.863374,,,
9169.006,1966.490948,3193.700655,2937.189555,1648.548035,,,
9177.093,1966.50435,3193.978793,2937.781749,1648.234528,,,
9185.18,1966.549628,3194.246754,2938.400861,1647.948779,,,
9193.267,1966.630906,3194.493502,2939.026894,1647.707821,,,
9201.323,1966.742788,3194.713559,2939.634858,1647.516886,,,
9209.043,1966.87878,3194.894733,2940.184081,1647.387549,,,
9217.13,1967.049632,3195.04853,2940.702738,1647.31362,,,
9225.217,1967.244137,3195.166435,2941.152394,1647.297915,,,
9233.304,1967.460679,3195.242683,2941.507535,1647.345235,,,
9241.024,1967.680746,3195.281704,2941.75862,1647.437143,,,
9249.111,1967.920615,3195.287047,2941.918294,1647.57782,,,
9257.198,1968.163163,3195.259378,2941.969382,1647.753859,,,
9265.285,1968.402051,3195.205664,2941.923568,1647.952686,,,
9273.005,1968.619336,3195.132991,2941.785734,1648.155387,,,
9281.092,1968.830854,3195.044181,2941.567605,1648.369411,,,
9289.179,1969.019506,3194.949375,2941.286218,1648.576335,,,
9297.266,1969.179526,3194.858322,2940.963998,1648.767218,,,
9305.322,1969.309584,3194.779406,2940.627658,1648.937243,,,
9313.042,1969.400776,3194.725464,2940.314787,1649.074658,,,
9321.129,1969.46472,3194.697134,2940.020592,1649.193024,,,
9329.216,1969.495633,3194.70585,2939.785379,1649.283768,,,
9337.303,1969.495717,3194.75861,2939.634741,1649.347979,,,
9345.023,1969.473372,3194.848804,2939.576552,1649.389363,,,
9353.11,1969.4283,3194.994009,2939.635853,1649.412187,,,
9361.197,1969.370532,3195.183117,2939.80866,1649.420901,,,
9369.284,1969.305959,3195.41578,2940.102478,1649.418362,,,
9377.004,1969.245153,3195.675113,2940.49513,1649.408472,,,
9385.091,1969.188327,3195.976491,2941.003137,1649.393217,,,
9393.178,1969.146864,3196.305106,2941.608605,1649.373756,,,
9401.265,1969.124535,3196.649687,2942.279352,1649.351002,,,
9409.321,1969.126341,3197.002213,2942.994064,1649.324453,,,
9417.041,1969.155025,3197.34135,2943.699175,1649.294094,,,
9425.128,1969.212287,3197.691946,2944.435073,1649.256498,,,
9433.215,1969.302922,3198.030757,2945.141189,1649.210723,,,
9441.302,1969.422985,3198.354909,2945.799021,1649.157086,,,
9449.022,1969.565622,3198.64783,2946.364025,1649.098384,,,
9457.109,1969.743486,3198.93615,2946.873675,1649.030175,,,
9465.196,1969.946341,3199.207916,2947.297745,1648.957756,,,
9473.283,1970.174926,3199.463864,2947.620213,1648.884367,,,
9481.37,1970.423631,3199.710033,2947.85402,1648.814527,,,
9489.09,1970.677929,3199.940154,2947.997457,1648.755499,,,
9497.177,1970.959176,3200.182227,2948.07349,1648.707343,,,
9505.264,1971.25124,3200.430729,2948.093696,1648.676495,,,
9513.32,1971.5503,3200.691746,2948.070813,1648.670166,,,
9521.04,1971.839954,3200.957475,2948.031493,1648.687757,,,
9529.127,1972.142872,3201.256172,2947.989836,1648.734585,,,
9537.214,1972.440408,3201.577706,2947.969155,1648.811898,,,
9545.301,1972.728747,3201.919956,2947.984273,1648.916626,,,
9553.021,1972.989453,3202.266259,2948.052364,1649.04314,,,
9561.108,1973.244675,3202.643001,2948.184737,1649.196076,,,
9569.195,1973.476563,3203.029333,2948.390529,1649.365603,,,
9577.282,1973.680551,3203.417574,2948.675338,1649.544168,,,
9585.369,1973.856397,3203.800321,2949.031948,1649.723609,,,
9593.089,1973.99288,3204.151795,2949.443554,1649.887324,,,
9601.176,1974.106329,3204.499622,2949.933362,1650.043703,,,
9609.263,1974.189466,3204.819561,2950.475968,1650.176877,,,
9617.319,1974.244671,3205.104169,2951.056824,1650.278766,,,
9625.039,1974.278481,3205.345894,2951.636269,1650.346791,,,
9633.126,1974.297643,3205.55999,2952.256726,1650.378331,,,
9641.213,1974.310695,3205.741296,2952.876595,1650.373974,,,
9649.3,1974.326203,3205.892083,2953.485705,1650.332969,,,
9657.387,1974.355715,3206.01845,2954.074157,1650.257229,,,
9665.107,1974.404251,3206.12568,2954.613967,1650.159635,,,
9673.194,1974.491149,3206.232356,2955.149733,1650.032486,,,
9681.281,1974.619626,3206.344937,2955.659631,1649.889532,,,
9689.368,1974.798663,3206.474113,2956.146145,1649.736543,,,
9697.088,1975.025186,3206.624955,2956.594506,1649.587932,,,
9705.175,1975.317599,3206.817408,2957.057003,1649.43586,,,
9713.262,1975.676175,3207.059704,2957.522826,1649.295127,,,
9721.318,1976.089886,3207.351317,2958.001802,1649.17086,,,
9729.038,1976.537572,3207.682935,2958.485787,1649.071703,,,
9737.125,1977.054209,3208.087284,2959.031637,1648.993729,,,
9745.212,1977.607284,3208.543212,2959.622795,1648.943076,,,
9753.299,1978.189153,3209.051831,2960.273476,1648.926069,,,
9761.386,1978.783562,3209.598915,2960.98104,1648.940456,,,
9769.106,1979.351208,3210.148769,2961.710914,1648.984771,,,
9777.193,1979.930975,3210.740594,2962.529035,1649.063739,,,
9785.28,1980.484022,3211.333541,2963.388064,1649.171788,,,
9793.367,1980.991868,3211.909546,2964.276437,1649.30996,,,
9801.087,1981.427211,3212.429,2965.12985,1649.463706,,,
9809.174,1981.818795,3212.923554,2966.006889,1649.64461,,,
9817.261,1982.132793,3213.347213,2966.835164,1649.840327,,,
9825.317,1982.368155,3213.689353,2967.587512,1650.043028,,,
9833.404,1982.510825,3213.925114,2968.224879,1650.247582,,,
9841.124,1982.565364,3214.046426,2968.703943,1650.436694,,,
9849.211,1982.53238,3214.049323,2969.036887,1650.621156,,,
9857.298,1982.405259,3213.910939,2969.162664,1650.783437,,,
9865.385,1982.193925,3213.636683,2969.078415,1650.919627,,,
9873.105,1981.906779,3213.227435,2968.760562,1651.017195,,,
9881.192,1981.530314,3212.659899,2968.197274,1651.086064,,,
9889.279,1981.077756,3211.946408,2967.387817,1651.118445,,,
9897.366,1980.552737,3211.088609,2966.33305,1651.114514,,,
9905.086,1979.995961,3210.156999,2965.135156,1651.083283,,,
9913.173,1979.351237,3209.056501,2963.672724,1651.022675,,,
9921.26,1978.658169,3207.860825,2962.057247,1650.944114,,,
9929.316,1977.923617,3206.587892,2960.323589,1650.854419,,,
9937.403,1977.147524,3205.247177,2958.498974,1650.761382,,,
9945.123,1976.380046,3203.932914,2956.72252,1650.676435,,,
9953.21,1975.551173,3202.538441,2954.865825,1650.599517,,,
9961.297,1974.707391,3201.150706,2953.054291,1650.538825,,,
9969.384,1973.855318,3199.790116,2951.324422,1650.498424,,,
9977.104,1973.042255,3198.538898,2949.786801,1650.481786,,,
9985.191,1972.198484,3197.288636,2948.305331,1650.484998,,,
9993.278,1971.374214,3196.126893,2946.997741,1650.511027,,,
10001.365,1970.577336,3195.057095,2945.857626,1650.554543,,,
10009.085,1969.851921,3194.13326,2944.936066,1650.609772,,,
10017.172,1969.14119,3193.277992,2944.150316,1650.677802,,,
10025.259,1968.485833,3192.531546,2943.527265,1650.751184,,,
10033.315,1967.906147,3191.911487,2943.077777,1650.825244,,,
10041.402,1967.399182,3191.398355,2942.765561,1650.896074,,,
10049.122,1966.993834,3191.010155,2942.586499,1650.957098,,,
10057.209,1966.660774,3190.707501,2942.508474,1651.010621,,,
10065.296,1966.416617,3190.495104,2942.515635,1651.052356,,,
10073.383,1966.274245,3190.374802,2942.59859,1651.07913,,,
10081.103,1966.222203,3190.327755,2942.724951,1651.091454,,,
10089.19,1966.255884,3190.343176,2942.894791,1651.08972,,,
10097.277,1966.375085,3190.414901,2943.089457,1651.072899,,,
10105.364,1966.564778,3190.528594,2943.296939,1651.042692,,,
10113.084,1966.809668,3190.671136,2943.500067,1651.000292,,,
10121.171,1967.113978,3190.84273,2943.711729,1650.943737,,,
10129.258,1967.457249,3191.029733,2943.918549,1650.874593,,,
10137.314,1967.824036,3191.222583,2944.117212,1650.793251,,,
10145.401,1968.202291,3191.415216,2944.309195,1650.700613,,,
10153.121,1968.56068,3191.591343,2944.48477,1650.601216,,,
10161.208,1968.921478,3191.762826,2944.662187,1650.487768,,,
10169.295,1969.256425,3191.915846,2944.833541,1650.365716,,,
10177.382,1969.554128,3192.045312,2944.999554,1650.236923,,,
10185.102,1969.801149,3192.146897,2945.154041,1650.110372,,,
10193.189,1970.00863,3192.224541,2945.311139,1649.976478,,,
10201.276,1970.167362,3192.276211,2945.463704,1649.844457,,,
10209.363,1970.274734,3192.301912,2945.610894,1649.717176,,,
10217.083,1970.328595,3192.303748,2945.745138,1649.603079,,,
10225.17,1970.34266,3192.287977,2945.878956,1649.49234,,,
10233.257,1970.312588,3192.257184,2946.003669,1649.393463,,,
10241.344,1970.250365,3192.219685,2946.119693,1649.305572,,,
10249.431,1970.16231,3192.182007,2946.226769,1649.228573,,,
10257.151,1970.061501,3192.153878,2946.320991,1649.164497,,,
10265.238,1969.94789,3192.138559,2946.413858,1649.104398,,,
10273.294,1969.834207,3192.147911,2946.502663,1649.050129,,,
10281.381,1969.727239,3192.186351,2946.592595,1648.998018,,,
10289.101,1969.637443,3192.256106,2946.683522,1648.948427,,,
10297.188,1969.561883,3192.369826,2946.790433,1648.894464,,,
10305.275,1969.506595,3192.524386,2946.913982,1648.837354,,,
10313.362,1969.475984,3192.726738,2947.063512,1648.776084,,,
10321.449,1969.467507,3192.971837,2947.242884,1648.711545,,,
10329.169,1969.479217,3193.244915,2947.447374,1648.648064,,,
10337.256,1969.510265,3193.569969,2947.702782,1648.582073,,,
10345.343,1969.555586,3193.926794,2947.999399,1648.519499,,,
10353.43,1969.612652,3194.312605,2948.34398,1648.465012,,,
10361.15,1969.673317,3194.698597,2948.712969,1648.423913,,,
10369.237,1969.740419,3195.115123,2949.140926,1648.396852,,,
10377.293,1969.808151,3195.53431,2949.606424,1648.39156,,,
10385.38,1969.875617,3195.951978,2950.104508,1648.409944,,,
10393.467,1969.942377,3196.358477,2950.629889,1648.458949,,,
10401.187,1970.006779,3196.731241,2951.147205,1648.53442,,,
10409.274,1970.077396,3197.100744,2951.698587,1648.646204,,,
10417.361,1970.155499,3197.444066,2952.250814,1648.793785,,,
10425.448,1970.24464,3197.761696,2952.796265,1648.973821,,,
10433.168,1970.346158,3198.037592,2953.302384,1649.178478,,,
10441.255,1970.47259,3198.302112,2953.812373,1649.421471,,,
10449.342,1970.62394,3198.543451,2954.29603,1649.691517,,,
10457.429,1970.80441,3198.76554,2954.747637,1649.984828,,,
10465.149,1971.001898,3198.966301,2955.149834,1650.27972,,,
10473.236,1971.238849,3199.170155,2955.534285,1650.600168,,,
10481.292,1971.499086,3199.374956,2955.884026,1650.922806,,,
10489.379,1971.781198,3199.589561,2956.201173,1651.243356,,,
10497.466,1972.078113,3199.822207,2956.484212,1651.551687,,,
10505.186,1972.367335,3200.065096,2956.727766,1651.829315,,,
10513.273,1972.668055,3200.351097,2956.952969,1652.091591,,,
10521.36,1972.957605,3200.669891,2957.153732,1652.320811,,,
10529.447,1973.227636,3201.02434,2957.332006,1652.510333,,,
10537.167,1973.457993,3201.397805,2957.483122,1652.646782,,,
10545.254,1973.668354,3201.819189,2957.626741,1652.745514,,,
10553.341,1973.837806,3202.270407,2957.757266,1652.790735,,,
10561.428,1973.968683,3202.740765,2957.880547,1652.78851,,,
10569.148,1974.057385,3203.200251,2957.99556,1652.743229,,,
10577.235,1974.114444,3203.682156,2958.11905,1652.653644,,,
10585.291,1974.143451,3204.153299,2958.250348,1652.531145,,,
10593.378,1974.150006,3204.605217,2958.398698,1652.379114,,,
10601.465,1974.146674,3205.029332,2958.568951,1652.21021,,,
10609.185,1974.143921,3205.402314,2958.757998,1652.041268,,,
10617.272,1974.154511,3205.75426,2958.991729,1651.866442,,,
10625.359,1974.18882,3206.069793,2959.263638,1651.702385,,,
10633.446,1974.262482,3206.347588,2959.583179,1651.560029,,,
10641.166,1974.3759,3206.586751,2959.931192,1651.449592,,,
10649.253,1974.549216,3206.817273,2960.343374,1651.366815,,,
10657.34,1974.787231,3207.038632,2960.805307,1651.323178,,,
10665.427,1975.087758,3207.262877,2961.310253,1651.316855,,,
10673.147,1975.441272,3207.492173,2961.832971,1651.349523,,,
10681.234,1975.872246,3207.757562,2962.41249,1651.417456,,,
10689.29,1976.360898,3208.056676,2963.015865,1651.516281,,,
10697.377,1976.904388,3208.399262,2963.63763,1651.64071,,,
10705.464,1977.48613,3208.781509,2964.263268,1651.780827,,,
10713.184,1978.068539,3209.184415,2964.851683,1651.922475,,,
10721.271,1978.689344,3209.633762,2965.445676,1652.069625,,,
10729.358,1979.306024,3210.09903,2966.001859,1652.207593,,,
10737.445,1979.898584,3210.560104,2966.500276,1652.327343,,,
10745.165,1980.429156,3210.977934,2966.914043,1652.421182,,,
10753.252,1980.922875,3211.360862,2967.253313,1652.489339,,,
10761.339,1981.343217,3211.666624,2967.490248,1652.527315,,,
10769.426,1981.67324,3211.867109,2967.606293,1652.533229,,,
10777.146,1981.884507,3211.926848,2967.58155,1652.508113,,,
10785.233,1981.999012,3211.84593,2967.417522,1652.455543,,,
10793.289,1981.97829,3211.575933,2967.080215,1652.376974,,,
10801.376,1981.830327,3211.120252,2966.577112,1652.280134,,,
10809.463,1981.549056,3210.467664,2965.900811,1652.170512,,,
10817.183,1981.148125,3209.647998,2965.082309,1652.05976,,,
10825.27,1980.608216,3208.612903,2964.06791,1651.94337,,,
10833.357,1979.934218,3207.385945,2962.878159,1651.831999,,,
10841.444,1979.148855,3206.008453,2961.543951,1651.728893,,,
10849.164,1978.302728,3204.573645,2960.147284,1651.639932,,,
10857.251,1977.325809,3202.975055,2958.57279,1651.556906,,,
10865.338,1976.279001,3201.321381,2956.917605,1651.481315,,,
10873.425,1975.172761,3199.649165,2955.202837,1651.409587,,,
10881.512,1974.032173,3198.002263,2953.466267,1651.335426,,,
10889.232,1972.927794,3196.487791,2951.815816,1651.25658,,,
10897.288,1971.77979,3195.009947,2950.136974,1651.157931,,,
10905.375,1970.649919,3193.651566,2948.522088,1651.037505,,,
10913.462,1969.566748,3192.463616,2947.020597,1650.886735,,,
10921.182,1968.589916,3191.493504,2945.710714,1650.713197,,,
10929.269,1967.643837,3190.666503,2944.494929,1650.497599,,,
10937.356,1966.796065,3190.047126,2943.468142,1650.246494,,,
10945.443,1966.04937,3189.615795,2942.628237,1649.965698,,,
10953.163,1965.452115,3189.393264,2942.032682,1649.671746,,,
10961.25,1964.941545,3189.324231,2941.607164,1649.346768,,,
10969.337,1964.555254,3189.410054,2941.389294,1649.012375,,,
10977.424,1964.297631,3189.629708,2941.378396,1648.680014,,,
10985.511,1964.152451,3189.944365,2941.541473,1648.360055,,,
10993.231,1964.12365,3190.31433,2941.859408,1648.078724,,,
11001.287,1964.186909,3190.736154,2942.320996,1647.818417,,,
11009.374,1964.336414,3191.169662,2942.895642,1647.600783,,,
11017.461,1964.558989,3191.58236,2943.553488,1647.437372,,,
11025.181,1964.817938,3191.938272,2944.22427,1647.330525,,,
11033.268,1965.126774,3192.242375,2944.945317,1647.280816,,,
11041.355,1965.451432,3192.467976,2945.652186,1647.286529,,,
11049.442,1965.776252,3192.602654,2946.318427,1647.3457,,,
11057.529,1966.082897,3192.634457,2946.913514,1647.454067,,,
11065.249,1966.348378,3192.579332,2947.405335,1647.59054,,,
11073.336,1966.580535,3192.422496,2947.811364,1647.762002,,,
11081.423,1966.76099,3192.183725,2948.106839,1647.947268,,,
11089.51,1966.88291,3191.872693,2948.2853,1648.135216,,,
11097.23,1966.937367,3191.518991,2948.339235,1648.304911,,,
11105.286,1966.937632,3191.112747,2948.294298,1648.463775,,,
11113.373,1966.874936,3190.680482,2948.141832,1648.592586,,,
11121.46,1966.762181,3190.24524,2947.908612,1648.687501,,,
11129.18,1966.614822,3189.842442,2947.625603,1648.743216,,,
11137.267,1966.42917,3189.452567,2947.286379,1648.763433,,,
11145.354,1966.226326,3189.106487,2946.928793,1648.751073,,,
11153.441,1966.019409,3188.823809,2946.576615,1648.708714,,,
11161.528,1965.82361,3188.609508,2946.253451,1648.647979,,,
11169.248,1965.658924,3188.475468,2945.990412,1648.581586,,,
11177.335,1965.524576,3188.417338,2945.784834,1648.515066,,,
11185.422,1965.435659,3188.436061,2945.657439,1648.462206,,,
11193.509,1965.407066,3188.538256,2945.628471,1648.436731,,,
11201.229,1965.437183,3188.702172,2945.689816,1648.445127,,,
11209.285,1965.532863,3188.937274,2945.848899,1648.49561,,,
11217.372,1965.698319,3189.232046,2946.105563,1648.596272,,,
11225.459,1965.924797,3189.571064,2946.442407,1648.743962,,,
11233.546,1966.213803,3189.948375,2946.855427,1648.94217,,,
11241.266,1966.53582,3190.331764,2947.300473,1649.169688,,,
11249.353,1966.912986,3190.749672,2947.80531,1649.441234,,,
11257.44,1967.319677,3191.1763,2948.332304,1649.736639,,,
11265.527,1967.740406,3191.604917,2948.863343,1650.041977,,,
11273.247,1968.142511,3192.011808,2949.359204,1650.330855,,,
11281.334,1968.549591,3192.433513,2949.855077,1650.618148,,,
11289.421,1968.928656,3192.850126,2950.317143,1650.878605,,,
11297.508,1969.263013,3193.262993,2950.736247,1651.099742,,,
11305.228,1969.535269,3193.656583,2951.098533,1651.272386,,,
11313.284,1969.752504,3194.071131,2951.431941,1651.401938,,,
11321.371,1969.902398,3194.495826,2951.730135,1651.485079,,,
11329.458,1969.978576,3194.934106,2951.997179,1651.522265,,,
11337.545,1969.975655,3195.39228,2952.240997,1651.516427,,,
11345.265,1969.909967,3195.849402,2952.462862,1651.48157,,,
11353.352,1969.771738,3196.35479,2952.692606,1651.418998,,,
11361.439,1969.579789,3196.885221,2952.929383,1651.342405,,,
11369.526,1969.345033,3197.439819,2953.180524,1651.260463,,,
11377.246,1969.094041,3197.989812,2953.440847,1651.186254,,,
11385.333,1968.821827,3198.579853,2953.735612,1651.119009,,,
11393.42,1968.558664,3199.178057,2954.057163,1651.070213,,,
11401.507,1968.323709,3199.77411,2954.401391,1651.041981,,,
11409.227,1968.14218,3200.332258,2954.748181,1651.035687,,,
11417.283,1968.018275,3200.891211,2955.124108,1651.051016,,,
11425.37,1967.968757,3201.420531,2955.508412,1651.084387,,,
11433.457,1968.01676,3201.90288,2955.892727,1651.133601,,,
11441.544,1968.162413,3202.332826,2956.269855,1651.192057,,,
11449.264,1968.396486,3202.687706,2956.61807,1651.251996,,,
11457.351,1968.746011,3202.992297,2956.965144,1651.313917,,,
11465.438,1969.18652,3203.232482,2957.293864,1651.371047,,,
11473.525,1969.717149,3203.401249,2957.602397,1651.419386,,,
11481.245,1970.28629,3203.504927,2957.882538,1651.456273,,,
11489.332,1970.932309,3203.558714,2958.165736,1651.484652,,,
11497.419,1971.60824,3203.56515,2958.446782,1651.502954,,,
11505.506,1972.289984,3203.541095,2958.735294,1651.51385,,,
11513.226,1972.924221,3203.501739,2959.02987,1651.51897,,,
11521.313,1973.551302,3203.462041,2959.368791,1651.522021,,,
11529.4,1974.121428,3203.440548,2959.750699,1651.525092,,,
11537.487,1974.613783,3203.457985,2960.190365,1651.530718,,,
11545.574,1975.025358,3203.525561,2960.690734,1651.540221,,,
11553.294,1975.328132,3203.655087,2961.237694,1651.554355,,,
11561.381,1975.557728,3203.862571,2961.879968,1651.574532,,,
11569.468,1975.700465,3204.148733,2962.592712,1651.600392,,,
11577.555,1975.761059,3204.517695,2963.373407,1651.632282,,,
11585.275,1975.762292,3204.932624,2964.16529,1651.667764,,,
11593.362,1975.71216,3205.430079,2965.034332,1651.711427,,,
11601.449,1975.633105,3205.967003,2965.918588,1651.761896,,,
11609.536,1975.541503,3206.523351,2966.795723,1651.820412,,,
11617.256,1975.459527,3207.046726,2967.596853,1651.885989,,,
11625.343,1975.392017,3207.562578,2968.376084,1651.965061,,,
11633.43,1975.358197,3208.009455,2969.052387,1652.057639,,,
11641.517,1975.362476,3208.363656,2969.603069,1652.16311,,,
11649.237,1975.404483,3208.591444,2969.985257,1652.275515,,,
11657.324,1975.48739,3208.683092,2970.19894,1652.404084,,,
11665.411,1975.599157,3208.621202,2970.219328,1652.539283,,,
11673.498,1975.729878,3208.372869,2970.00512,1652.675992,,,
11681.585,1975.860921,3207.945508,2969.564204,1652.806486,,,
11689.305,1975.97009,3207.369386,2968.928215,1652.917875,,,
11697.392,1976.044487,3206.583797,2968.025454,1653.009487,,,
11705.479,1976.062721,3205.640634,2966.914249,1653.068735,,,
11713.566,1975.997319,3204.53957,2965.589389,1653.081671,,,
11721.286,1975.846245,3203.372893,2964.163676,1653.046014,,,
11729.373,1975.58162,3202.050676,2962.526188,1652.951819,,,
11737.46,1975.191865,3200.650664,2960.770712,1652.791702,,,
11745.547,1974.684964,3199.207363,2958.94333,1652.57085,,,
11753.267,1974.080031,3197.813003,2957.161848,1652.298621,,,
11761.354,1973.336849,3196.364744,2955.298775,1651.959731,,,
11769.441,1972.490297,3194.954045,2953.473398,1651.57233,,,
11777.528,1971.552429,3193.610647,2951.727164,1651.145497,,,
11785.615,1970.551427,3192.347812,2950.081137,1650.695158,,,
11793.335,1969.55264,3191.242782,2948.638625,1650.254354,,,
11801.422,1968.489489,3190.195858,2947.272144,1649.796519,,,
11809.509,1967.432555,3189.271292,2946.067382,1649.355831,,,
11817.596,1966.411415,3188.483163,2945.044509,1648.948824,,,
11825.316,1965.486987,3187.843508,2944.219129,1648.598309,,,
11833.403,1964.602843,3187.305741,2943.532588,1648.287635,,,
11841.49,1963.816871,3186.883463,2943.00211,1648.037465,,,
11849.577,1963.144697,3186.568971,2942.617801,1647.853355,,,
11857.297,1962.631211,3186.366016,2942.383465,1647.747642,,,
11865.384,1962.218103,3186.231506,2942.245,1647.701483,,,
11873.471,1961.95415,3186.174438,2942.21347,1647.728218,,,
11881.558,1961.825791,3186.175118,2942.262637,1647.816768,,,
11889.278,1961.826018,3186.219897,2942.37221,1647.953375,,,
11897.365,1961.952729,3186.304347,2942.541863,1648.144807,,,
11905.452,1962.184296,3186.414769,2942.751391,1648.37122,,,
11913.539,1962.515513,3186.545327,2942.995064,1648.624238,,,
11921.626,1962.91898,3186.68688,2943.262327,1648.888997,,,
11929.346,1963.353546,3186.826623,2943.534409,1649.142272,,,
11937.433,1963.840502,3186.971325,2943.833587,1649.395629,,,
11945.52,1964.335848,3187.10846,2944.14244,1649.628305,,,
11953.607,1964.817359,3187.229943,2944.458677,1649.828851,,,
11961.327,1965.245311,3187.325281,2944.76391,1649.986348,,,
11969.414,1965.643916,3187.396542,2945.084053,1650.112322,,,
11977.501,1965.971852,3187.428172,2945.400189,1650.195058,,,
11985.588,1966.22547,3187.417205,2945.708343,1650.240866,,,
11993.308,1966.383586,3187.356425,2945.989162,1650.250969,,,
12001.395,1966.466032,3187.239852,2946.264876,1650.236361,,,
12009.482,1966.46469,3187.066693,2946.516226,1650.203919,,,
12017.569,1966.382051,3186.834334,2946.735293,1650.163782,,,
12025.289,1966.245772,3186.567475,2946.913537,1650.127807,,,
12033.376,1966.049268,3186.241859,2947.058598,1650.103058,,,
12041.463,1965.821072,3185.885399,2947.162271,1650.098681,,,
12049.55,1965.578044,3185.510725,2947.222702,1650.120661,,,
12057.637,1965.340588,3185.134951,2947.236733,1650.175375,,,
12065.357,1965.133843,3184.790356,2947.213751,1650.255395,,,
12073.444,1964.957551,3184.464722,2947.14996,1650.370872,,,
12081.531,1964.831775,3184.189368,2947.054936,1650.511501,,,
12089.618,1964.76456,3183.977964,2946.935142,1650.671569,,,
12097.338,1964.764785,3183.854073,2946.804408,1650.835911,,,
12105.425,1964.823863,3183.803175,2946.66093,1651.010715,,,
12113.512,1964.946857,3183.848633,2946.520282,1651.179173,,,
12121.599,1965.12029,3183.983114,2946.392863,1651.332776,,,
12129.319,1965.32349,3184.191217,2946.291926,1651.459114,,,
12137.406,1965.564308,3184.490207,2946.219186,1651.562163,,,
12145.493,1965.817711,3184.853842,2946.184281,1651.634194,,,
12153.58,1966.069955,3185.275441,2946.198473,1651.669112,,,
12161.3,1966.296983,3185.713816,2946.258985,1651.669944,,,
12169.387,1966.50993,3186.197246,2946.374567,1651.637606,,,
12177.474,1966.686119,3186.690363,2946.547466,1651.572407,,,
12185.561,1966.823597,3187.179223,2946.770949,1651.481259,,,
12193.648,1966.91549,3187.650665,2947.047153,1651.366413,,,
12201.368,1966.964225,3188.075955,2947.352129,1651.241266,,,
12209.455,1966.978085,3188.48895,2947.709217,1651.098956,,,
12217.542,1966.958707,3188.860935,2948.09952,1650.950607,,,
12225.629,1966.917939,3189.193712,2948.512402,1650.802047,,,
12233.349,1966.866986,3189.470443,2948.922413,1650.665151,,,
12241.436,1966.813235,3189.722128,2949.359793,1650.531599,,,
12249.523,1966.76942,3189.937196,2949.799008,1650.412539,,,
12257.61,1966.748231,3190.117444,2950.233481,1650.314006,,,
12265.33,1966.754353,3190.264792,2950.64031,1650.240111,,,
12273.417,1966.799807,3190.394457,2951.053411,1650.190267,,,
12281.504,1966.886132,3190.506194,2951.45235,1650.168285,,,
12289.591,1967.015211,3190.604057,2951.836471,1650.17533,,,
12297.311,1967.180796,3190.68767,2952.188747,1650.211245,,,
12305.398,1967.389752,3190.769323,2952.546048,1650.274015,,,
12313.485,1967.633589,3190.84684,2952.892287,1650.362505,,,
12321.572,1967.900895,3190.922429,2953.231508,1650.469417,,,
12329.659,1968.182766,3190.996927,2953.566711,1650.588912,,,
12337.379,1968.455704,3191.06701,2953.886023,1650.708165,,,
12345.466,1968.735489,3191.138896,2954.222655,1650.830718,,,
12353.553,1968.997603,3191.207791,2954.564585,1650.942426,,,
12361.64,1969.233789,3191.27242,2954.913856,1651.036541,,,
12369.36,1969.428987,3191.329052,2955.25568,1651.105054,,,
12377.447,1969.59381,3191.381815,2955.624861,1651.148263,,,
12385.534,1969.719821,3191.428675,2956.0054,1651.163249,,,
12393.621,1969.803058,3191.470514,2956.399649,1651.14701,,,
12401.341,1969.848544,3191.509112,2956.788832,1651.10661,,,
12409.428,1969.866064,3191.552587,2957.210795,1651.041938,,,
12417.515,1969.860457,3191.60694,2957.6493,1650.959194,,,
12425.602,1969.844312,3191.679196,2958.103522,1650.86635,,,
12433.689,1969.829426,3191.781568,2958.575888,1650.769405,,,
12441.409,1969.829094,3191.916168,2959.043235,1650.679479,,,
12449.496,1969.85481,3192.105042,2959.549889,1650.59293,,,
12457.583,1969.922763,3192.357735,2960.074696,1650.519591,,,
12465.67,1970.038565,3192.675551,2960.614327,1650.460825,,,
12473.39,1970.206374,3193.051791,2961.142216,1650.421175,,,
12481.477,1970.443259,3193.519411,2961.7035,1650.395835,,,
12489.564,1970.744301,3194.060684,2962.268057,1650.386217,,,
12497.651,1971.112676,3194.674479,2962.827627,1650.3917,,,
12505.371,1971.514923,3195.310427,2963.349728,1650.407545,,,
12513.458,1971.987776,3196.020212,2963.870759,1650.434645,,,
12521.545,1972.496211,3196.749636,2964.354593,1650.469509,,,
12529.632,1973.026776,3197.476574,2964.788632,1650.510645,,,
12537.352,1973.538181,3198.139175,2965.136569,1650.555035,,,
12545.439,1974.062061,3198.778255,2965.426769,1650.605472,,,
12553.526,1974.552686,3199.322126,2965.615038,1650.659928,,,
12561.613,1974.99315,3199.74716,2965.694046,1650.71769,,,
12569.7,1975.368191,3200.030011,2965.653194,1650.778358,,,
12577.42,1975.64193,3200.127847,2965.478357,1650.838686,,,
12585.507,1975.840022,3200.056555,2965.163593,1650.903341,,,
12593.594,1975.924786,3199.770312,2964.689944,1650.968565,,,
12601.681,1975.896169,3199.275917,2964.06436,1651.0329,,,
12609.401,1975.761282,3198.612,2963.327084,1651.092225,,,
12617.488,1975.498006,3197.706455,2962.399791,1651.150348,,,
12625.575,1975.126138,3196.621268,2961.337161,1651.203473,,,
12633.662,1974.64105,3195.358359,2960.136107,1651.249889,,,
12641.382,1974.088223,3194.022364,2958.882547,1651.287642,,,
12649.469,1973.42622,3192.514064,2957.473771,1651.320143,,,
12657.556,1972.688521,3190.923753,2955.983118,1651.345193,,,
12665.643,1971.896903,3189.293426,2954.440775,1651.364193,,,
12673.363,1971.100164,3187.730235,2952.93866,1651.377012,,,
12681.45,1970.240995,3186.121108,2951.361827,1651.38641,,,
12689.537,1969.37013,3184.571017,2949.805037,1651.392708,,,
12697.624,1968.502532,3183.117949,2948.29827,1651.396791,,,
12705.711,1967.650127,3181.775771,2946.858894,1651.399593,,,
12713.431,1966.863119,3180.628323,2945.574999,1651.401364,,,
12721.518,1966.075354,3179.573159,2944.338002,1651.402496,,,
12729.605,1965.333056,3178.676134,2943.225427,1651.402868,,,
12737.692,1964.649111,3177.956048,2942.262897,1651.402323,,,
12745.412,1964.049621,3177.412561,2941.474889,1651.40106,,,
12753.499,1963.490939,3177.009155,2940.811639,1651.399107,,,
12761.586,1963.001564,3176.75085,2940.302869,1651.397194,,,
12769.673,1962.583399,3176.623672,2939.945921,1651.396236,,,
12777.393,1962.258642,3176.618772,2939.755653,1651.397763,,,
12785.48,1961.985721,3176.701848,2939.685194,1651.403068,,,
12793.567,1961.788467,3176.865222,2939.751247,1651.41442,,,
12801.654,1961.657449,3177.080248,2939.927808,1651.432969,,,
12809.374,1961.589022,3177.315046,2940.183076,1651.4582,,,
12817.461,1961.573813,3177.572069,2940.525955,1651.493417,,,
12825.548,1961.602939,3177.821612,2940.917153,1651.536064,,,
12833.635,1961.671827,3178.045232,2941.337029,1651.585097,,,
12841.722,1961.768016,3178.229588,2941.758345,1651.637054,,,
12849.442,1961.87678,3178.3602,2942.142071,1651.686064,,,
12857.529,1961.999941,3178.436338,2942.499048,1651.731708,,,
12865.616,1962.123406,3178.452032,2942.796385,1651.767396,,,
12873.703,1962.239158,3178.398366,2943.010648,1651.786814,,,
12881.423,1962.336478,3178.286124,2943.129752,1651.786517,,,
12889.51,1962.420105,3178.107537,2943.158868,1651.763365,,,
12897.597,1962.479196,3177.866599,2943.078884,1651.712267,,,
12905.684,1962.513902,3177.575861,2942.903083,1651.635333,,,
12913.404,1962.520595,3177.25448,2942.642979,1651.536092,,,
12921.491,1962.501477,3176.884314,2942.292,1651.409671,,,
12929.578,1962.456224,3176.489472,2941.875292,1651.26439,,,
12937.665,1962.384042,3176.080849,2941.40929,1651.105442,,,
12945.385,1962.294484,3175.689761,2940.942712,1650.948572,,,
12953.472,1962.177936,3175.29147,2940.451825,1650.786033,,,
12961.559,1962.042371,3174.916328,2939.983316,1650.633292,,,
12969.646,1961.890039,3174.574728,2939.557893,1650.497131,,,
12977.733,1961.722476,3174.281739,2939.203569,1650.386635,,,
12985.453,1961.552836,3174.049414,2938.939028,1650.306631,,,
12993.54,1961.367439,3173.869519,2938.764309,1650.256758,,,
13001.627,1961.179485,3173.754571,2938.696865,1650.240642,,,
13009.714,1960.99388,3173.705795,2938.74,1650.257453,,,
13017.434,1960.825781,3173.727616,2938.895928,1650.305039,,,
13025.521,1960.664377,3173.810243,2939.159,1650.379626,,,
13033.608,1960.527876,3173.957304,2939.527689,1650.476862,,,
13041.695,1960.423202,3174.158145,2939.980978,1650.587937,,,
13049.415,1960.359273,3174.393233,2940.477498,1650.700242,,,
13057.502,1960.341185,3174.680402,2941.04982,1650.816466,,,
13065.589,1960.373753,3174.997955,2941.651501,1650.924214,,,
13073.676,1960.467244,3175.341902,2942.265224,1651.015227,,,
13081.396,1960.612432,3175.687788,2942.843945,1651.081562,,,
13089.483,1960.822878,3176.064461,2943.42849,1651.125395,,,
13097.57,1961.094816,3176.453697,2943.974926,1651.137298,,,
13105.657,1961.417191,3176.852816,2944.478499,1651.11884,,,
13113.744,1961.787441,3177.262443,2944.929604,1651.066734,,,
13121.464,1962.174041,3177.663121,2945.312717,1650.988481,,,
13129.551,1962.603229,3178.093212,2945.667696,1650.87971,,,
13137.638,1963.045769,3178.534989,2945.978093,1650.745833,,,
13145.725,1963.488169,3178.986537,2946.25732,1650.594717,,,
13153.445,1963.898569,3179.425857,2946.502221,1650.43878,,,
13161.532,1964.305042,3179.890847,2946.749658,1650.271113,,,
13169.619,1964.678477,3180.356392,2946.998967,1650.105842,,,
13177.706,1965.006344,3180.815681,2947.263406,1649.951678,,,
13185.426,1965.276783,3181.243007,2947.536686,1649.819604,,,
13193.513,1965.505555,3181.669821,2947.855403,1649.705422,,,
13201.6,1965.681889,3182.069492,2948.209257,1649.618804,,,
13209.687,1965.807644,3182.436354,2948.59892,1649.562107,,,
13217.774,1965.88221,3182.761128,2949.025314,1649.539315,,,
13225.494,1965.917037,3183.033937,2949.457273,1649.543989,,,
13233.581,1965.918264,3183.274232,2949.930643,1649.576812,,,
13241.668,1965.895355,3183.472223,2950.412514,1649.630763,,,
13249.755,1965.857533,3183.631614,2950.891572,1649.699438,,,
13257.475,1965.816267,3183.749099,2951.332277,1649.772348,,,
13265.562,1965.776835,3183.847228,2951.767615,1649.848222,,,
13273.649,1965.750208,3183.925091,2952.161531,1649.915827,,,
13281.736,1965.742964,3183.993658,2952.507428,1649.968466,,,
13289.456,1965.758172,3184.058674,2952.789241,1650.000364,,,
13297.543,1965.803103,3184.136516,2953.027362,1650.008383,,,
13305.63,1965.87597,3184.231534,2953.215592,1649.990924,,,
13313.717,1965.9794,3184.353543,2953.355435,1649.944522,,,
13321.437,1966.10327,3184.499973,2953.45618,1649.875389,,,
13329.524,1966.256052,3184.688316,2953.539838,1649.779161,,,
13337.611,1966.429417,3184.918086,2953.616908,1649.660129,,,
13345.698,1966.616247,3185.185167,2953.704561,1649.52458,,,
13353.785,1966.812091,3185.49114,2953.821748,1649.375759,,,
13361.505,1967.001446,3185.81375,2953.976152,1649.226993,,,
13369.592,1967.197306,3186.177199,2954.193908,1649.06927,,,
13377.679,1967.384562,3186.559872,2954.486347,1648.91598,,,
13385.766,1967.559687,3186.949977,2954.851218,1648.772442,,,
13393.486,1967.710624,3187.319188,2955.274663,1648.651196,,,
13401.573,1967.849264,3187.690047,2955.787323,1648.545966,,,
13409.66,1967.965855,3188.032877,2956.359193,1648.467979,,,
13417.747,1968.055888,3188.329385,2956.97558,1648.426054,,,
13425.467,1968.118845,3188.562892,2957.57959,1648.419492,,,
13433.554,1968.156339,3188.735322,2958.201507,1648.456052,,,
13441.641,1968.166068,3188.826649,2958.77883,1648.536,,,
13449.728,1968.147988,3188.828315,2959.280175,1648.658943,,,
13457.448,1968.101433,3188.727127,2959.641436,1648.818987,,,
13465.535,1968.025738,3188.521561,2959.881599,1649.02146,,,
13473.622,1967.918374,3188.196138,2959.929305,1649.257325,,,
13481.709,1967.780431,3187.755949,2959.767873,1649.514942,,,
13489.796,1967.611639,3187.20438,2959.384509,1649.783787,,,
13497.516,1967.416376,3186.564248,2958.772697,1650.038777,,,
13505.603,1967.179085,3185.796506,2957.90763,1650.292045,,,
13513.69,1966.901401,3184.924998,2956.791453,1650.515764,,,
13521.777,1966.58206,3183.96578,2955.454561,1650.698018,,,
13529.497,1966.236446,3182.980232,2953.998919,1650.825205,,,
13537.584,1965.823638,3181.881787,2952.303659,1650.895615,,,
13545.671,1965.361401,3180.736668,2950.490465,1650.904086,,,
13553.758,1964.841913,3179.555839,2948.593003,1650.843109,,,
13561.478,1964.29336,3178.412371,2946.752557,1650.72579,,,
13569.565,1963.664429,3177.212328,2944.836681,1650.548015,,,
13577.652,1962.97673,3176.028202,2942.985099,1650.320122,,,
13585.739,1962.240292,3174.874069,2941.231129,1650.059644,,,
13593.459,1961.493213,3173.818474,2939.691986,1649.791195,,,
13601.546,1960.67644,3172.773892,2938.243483,1649.505961,,,
13609.633,1959.835848,3171.80428,2936.981149,1649.230338,,,
13617.72,1958.985733,3170.931243,2935.938615,1648.981032,,,
13625.807,1958.143273,3170.154452,2935.09711,1648.766326,,,
13633.527,1957.363935,3169.519381,2934.498069,1648.604966,,,
13641.614,1956.591675,3168.966002,2934.065239,1648.484789,,,
13649.701,1955.88063,3168.527103,2933.814101,1648.415059,,,
13657.788,1955.257592,3168.214062,2933.740932,1648.398761,,,
13665.508,1954.748215,3168.01457,2933.795505,1648.421974,,,
13673.595,1954.328765,3167.917089,2933.974489,1648.483961,,,
13681.682,1954.027786,3167.91707,2934.242066,1648.570998,,,
13689.769,1953.847,3168.003038,2934.572656,1648.671861,,,
13697.489,1953.799891,3168.162554,2934.927489,1648.769362,,,
13705.576,1953.85902,3168.38832,2935.313786,1648.861441,,,
13713.663,1954.032628,3168.669035,2935.696625,1648.930541,,,
13721.75,1954.29822,3168.988697,2936.058403,1648.967725,,,
13729.47,1954.619495,3169.319734,2936.373414,1648.967777,,,
13737.557,1955.009176,3169.684629,2936.658051,1648.921699,,,
13745.644,1955.424064,3170.057019,2936.89537,1648.831228,,,
13753.731,1955.84017,3170.42873,2937.077266,1648.6921,,,
13761.818,1956.230479,3170.791547,2937.20604,1648.509752,,,
13769.538,1956.560286,3171.124099,2937.282841,1648.301196,,,
13777.625,1956.834407,3171.44972,2937.314512,1648.051096,,,
13785.712,1957.028936,3171.749353,2937.307432,1647.781209,,,
13793.799,1957.125684,3172.01529,2937.265118,1647.500688,,,
13801.519,1957.126333,3172.23456,2937.20106,1647.234947,,,
13809.606,1957.035218,3172.425597,2937.117387,1646.9694,,,
13817.693,1956.84979,3172.569874,2937.024892,1646.731605,,,
13825.78,1956.593095,3172.67063,2936.932886,1646.529274,,,
13833.5,1956.291408,3172.721527,2936.853394,1646.381761,,,
13841.587,1955.94023,3172.730828,2936.786308,1646.280567,,,
13849.674,1955.574181,3172.69832,2936.741878,1646.238016,,,
13857.761,1955.218403,3172.625234,2936.729431,1646.263111,,,
13865.848,1954.893505,3172.522762,2936.750321,1646.347851,,,
13873.568,1954.633833,3172.402905,2936.808103,1646.48666,,,
13881.655,1954.43002,3172.265589,2936.909587,1646.684029,,,
13889.742,1954.305989,3172.126653,2937.053451,1646.92562,,,
13897.829,1954.28049,3171.999511,2937.245146,1647.204639,,,
13905.549,1954.33931,3171.898089,2937.466587,1647.491443,,,
13913.636,1954.497924,3171.826585,2937.742589,1647.804414,,,
13921.723,1954.743629,3171.798975,2938.058596,1648.11764,,,
13929.81,1955.065144,3171.821563,2938.410923,1648.421978,,,
13937.53,1955.437752,3171.902696,2938.78187,1648.694037,,,
13945.617,1955.872802,3172.044989,2939.198179,1648.956424,,,
13953.704,1956.342024,3172.254779,2939.642413,1649.188441,,,
13961.791,1956.824954,3172.527902,2940.108919,1649.389197,,,
13969.511,1957.2841,3172.843544,2940.571132,1649.552194,,,
13977.598,1957.745886,3173.231977,2941.070592,1649.691219,,,
13985.685,1958.177463,3173.666471,2941.580485,1649.803599,,,
13993.772,1958.564764,3174.142871,2942.098273,1649.889858,,,
14001.859,1958.901386,3174.648967,2942.620134,1649.95469,,,
14009.579,1959.173596,3175.149774,2943.119415,1650.000149,,,
14017.666,1959.400223,3175.682558,2943.640577,1650.03196,,,
14025.753,1959.575537,3176.211634,2944.157464,1650.051904,,,
14033.84,1959.699154,3176.724871,2944.667021,1650.060995,,,
14041.56,1959.776932,3177.189472,2945.144338,1650.061522,,,
14049.647,1959.824676,3177.641317,2945.632926,1650.05499,,,
14057.734,1959.844086,3178.043385,2946.105875,1650.041743,,,
14065.821,1959.846979,3178.393743,2946.562641,1650.02362,,,
14073.541,1959.840824,3178.669763,2946.980012,1650.002463,,,
14081.628,1959.833313,3178.896801,2947.396506,1649.977854,,,
14089.715,1959.830595,3179.060763,2947.790765,1649.952194,,,
14097.802,1959.839011,3179.156966,2948.159029,1649.927284,,,
14105.522,1959.859184,3179.197931,2948.488929,1649.905596,,,
14113.609,1959.896739,3179.188465,2948.809024,1649.886955,,,
14121.696,1959.950764,3179.140101,2949.1058,1649.873666,,,
14129.783,1960.020558,3179.065676,2949.381578,1649.866576,,,
14137.87,1960.106729,3178.979685,2949.637331,1649.867246,,,
14145.59,1960.20096,3178.902936,2949.868852,1649.874487,,,
14153.677,1960.312349,3178.845908,2950.101551,1649.889933,,,
14161.764,1960.434934,3178.829497,2950.331094,1649.912944,,,
14169.851,1960.568064,3178.8668,2950.563715,1649.943271,,,
14177.571,1960.70703,3178.974742,2950.797004,1649.980254,,,
14185.658,1960.864899,3179.163772,2951.05865,1650.026851,,,
14193.745,1961.039746,3179.448924,2951.347909,1650.083723,,,
14201.832,1961.234953,3179.83211,2951.671603,1650.152412,,,
14209.552,1961.443472,3180.288032,2952.017301,1650.230607,,,
14217.639,1961.69299,3180.868439,2952.428108,1650.330057,,,
14225.726,1961.975326,3181.537115,2952.886885,1650.447937,,,
14233.813,1962.297969,3182.293455,2953.400211,1650.588294,,,
14241.533,1962.645233,3183.082039,2953.93863,1650.743837,,,
14249.62,1963.050293,3183.962293,2954.54884,1650.928872,,,
14257.707,1963.50126,3184.8835,2955.203724,1651.137316,,,
14265.794,1963.990272,3185.82179,2955.888836,1651.363682,,,
14273.881,1964.515253,3186.756876,2956.593691,1651.604859,,,
14281.601,1965.040896,3187.623971,2957.268318,1651.842312,,,
14289.688,1965.60661,3188.486035,2957.960065,1652.091713,,,
14297.775,1966.174585,3189.269126,2958.610951,1652.332563,,,
14305.862,1966.729607,3189.959921,2959.203491,1652.55756,,,
14313.582,1967.230526,3190.504793,2959.687854,1652.748621,,,
14321.669,1967.707954,3190.939616,2960.089901,1652.917618,,,
14329.756,1968.122227,3191.223188,2960.367761,1653.050619,,,
14337.843,1968.446179,3191.321005,2960.485051,1653.139308,,,
14345.563,1968.66815,3191.253627,2960.45268,1653.186757,,,
14353.65,1968.784016,3190.985987,2960.236571,1653.193344,,,
14361.737,1968.77612,3190.525499,2959.837349,1653.161447,,,
14369.824,1968.641509,3189.879628,2959.258522,1653.096423,,,
14377.544,1968.375706,3189.074989,2958.519939,1653.005852,,,
14385.631,1967.974608,3188.074015,2957.586808,1652.89163,,,
14393.718,1967.437834,3186.90819,2956.484046,1652.762221,,,
14401.805,1966.781921,3185.607641,2955.238824,1652.625408,,,
14409.892,1966.023615,3184.199481,2953.876121,1652.486593,,,
14417.612,1965.20875,3182.769377,2952.47625,1652.356704,,,
14425.699,1964.292344,3181.221006,2950.945849,1652.225686,,,
14433.786,1963.326127,3179.643928,2949.369475,1652.101794,,,
14441.873,1962.337409,3178.069993,2947.778535,1651.984748,,,
14449.593,1961.393585,3176.592999,2946.269176,1651.878215,,,
14457.68,1960.430925,3175.102947,2944.72686,1651.770702,,,
14465.767,1959.513233,3173.68585,2943.242017,1651.664887,,,
14473.854,1958.665105,3172.367775,2941.841169,1651.558947,,,
14481.574,1957.935149,3171.214434,2940.597609,1651.456255,,,
14489.661,1957.262525,3170.122882,2939.402627,1651.346428,,,
14497.748,1956.703907,3169.173263,2938.342568,1651.234065,,,
14505.835,1956.250165,3168.354991,2937.410088,1651.12017,,,
14513.555,1955.923338,3167.710717,2936.654867,1651.011064,,,
14521.642,1955.681576,3167.172936,2936.000403,1650.897985,,,
14529.729,1955.531131,3166.769824,2935.480791,1650.78756,,,
14537.816,1955.466077,3166.51062,2935.105311,1650.681701,,,
14545.903,1955.459991,3166.371616,2934.849661,1650.58092,,,
14553.623,1955.497076,3166.352882,2934.718343,1650.490513,,,
14561.71,1955.559601,3166.437148,2934.682398,1650.402043,,,
14569.797,1955.628789,3166.612373,2934.734458,1650.319867,,,
14577.884,1955.685852,3166.87248,2934.867725,1650.2449,,,
14585.604,1955.717954,3167.175041,2935.046547,1650.179447,,,
14593.691,1955.714831,3167.538631,2935.278483,1650.118714,,,
14601.778,1955.669341,3167.928495,2935.536636,1650.06673,,,
14609.865,1955.581298,3168.327599,2935.806098,1650.024549,,,
14617.585,1955.454906,3168.699903,2936.059724,1649.996676,,,
14625.672,1955.290998,3169.067501,2936.310071,1649.980414,,,
14633.759,1955.101554,3169.39581,2936.53165,1649.980779,,,
14641.846,1954.901957,3169.674705,2936.715881,1649.998495,,,
14649.933,1954.706103,3169.899542,2936.858497,1650.033237,,,
14657.653,1954.539939,3170.051545,2936.945477,1650.084136,,,
14665.74,1954.398315,3170.154359,2936.991349,1650.151691,,,
14673.827,1954.306567,3170.195523,2936.98659,1650.232701,,,
14681.914,1954.274226,3170.183204,2936.936427,1650.322609,,,
14689.634,1954.301834,3170.130725,2936.852711,1650.41255,,,
14697.721,1954.402311,3170.039038,2936.731027,1650.506153,,,
14705.808,1954.565705,3169.925048,2936.587231,1650.594436,,,
14713.895,1954.791636,3169.798566,2936.429492,1650.672327,,,
14721.615,1955.054368,3169.677872,2936.277011,1650.733456,,,
14729.702,1955.365248,3169.560805,2936.125155,1650.781821,,,
14737.789,1955.699385,3169.464784,2935.994605,1650.810627,,,
14745.876,1956.037647,3169.394661,2935.892991,1650.82196,,,
14753.596,1956.348878,3169.359284,2935.834139,1650.815948,,,
14761.683,1956.646406,3169.357724,2935.819053,1650.794907,,,
14769.77,1956.902683,3169.392903,2935.855725,1650.761959,,,
14777.857,1957.099475,3169.469051,2935.955079,1650.7199,,,
14785.944,1957.236055,3169.579705,2936.111683,1650.6737,,,
14793.664,1957.301723,3169.717787,2936.319285,1650.629026,,,
14801.751,1957.304993,3169.89165,2936.593817,1650.585519,,,
14809.838,1957.248013,3170.090361,2936.92089,1650.54825,,,
14817.925,1957.132878,3170.311841,2937.300852,1650.521326,,,
14825.645,1956.986577,3170.537691,2937.700198,1650.506025,,,
14833.732,1956.804723,3170.787249,2938.153895,1650.503913,,,
14841.819,1956.611719,3171.046033,2938.633448,1650.516749,,,
14849.906,1956.422632,3171.31168,2939.130375,1650.544679,,,
14857.626,1956.263289,3171.571606,2939.614741,1650.587995,,,
14865.713,1956.128532,3171.850037,2940.124246,1650.648355,,,
14873.8,1956.042335,3172.137463,2940.629844,1650.725587,,,
14881.887,1956.012694,3172.437158,2941.126003,1650.818359,,,
14889.607,1956.039706,3172.737907,2941.587874,1650.919835,,,
14897.694,1956.135082,3173.075684,2942.055031,1651.039345,,,
14905.781,1956.289825,3173.439069,2942.505888,1651.168559,,,
14913.868,1956.504704,3173.835285,2942.938976,1651.30539,,,
14921.955,1956.769994,3174.267477,2943.356105,1651.445845,,,
14929.675,1957.059693,3174.713514,2943.742082,1651.579892,,,
14937.762,1957.393775,3175.219965,2944.135352,1651.715782,,,
14945.849,1957.743743,3175.758855,2944.52216,1651.843731,,,
14953.936,1958.098896,3176.327226,2944.905798,1651.959439,,,
14961.656,1958.431418,3176.888276,2945.272876,1652.055782,,,
14969.743,1958.764672,3177.484809,2945.661188,1652.140974,,,
14977.83,1959.07187,3178.077056,2946.056822,1652.207327,,,
14985.917,1959.350872,3178.651941,2946.460571,1652.257737,,,
14993.637,1959.585987,3179.170217,2946.854805,1652.291527,,,
15001.724,1959.80035,3179.668733,2947.276154,1652.315757,,,
15009.811,1959.985069,3180.113462,2947.704294,1652.332777,,,
15017.898,1960.141127,3180.488081,2948.137069,1652.3473,,,
15025.618,1960.271875,3180.784741,2948.551017,1652.363586,,,
15033.705,1960.393935,3181.023087,2948.981989,1652.388102,,,
15041.792,1960.509056,3181.194524,2949.406567,1652.423982,,,
15049.879,1960.623992,3181.308095,2949.822183,1652.473275,,,
15057.966,1960.746779,3181.368623,2950.225071,1652.539351,,,
15065.686,1960.875998,3181.396154,2950.598651,1652.61578,,,
15073.773,1961.03074,3181.405262,2950.977848,1652.709851,,,
15081.86,1961.209355,3181.413239,2951.347813,1652.814686,,,
15089.947,1961.413771,3181.435633,2951.712864,1652.926451,,,
15097.667,1961.639102,3181.490385,2952.062576,1653.036057,,,
15105.754,1961.902942,3181.591281,2952.436967,1653.149454,,,
15113.841,1962.198197,3181.75382,2952.828704,1653.257335,,,
15121.928,1962.522296,3181.985976,2953.246479,1653.356247,,,
15129.648,1962.855032,3182.273877,2953.675012,1653.440611,,,
15137.735,1963.226758,3182.654812,2954.165894,1653.515374,,,
15145.822,1963.614506,3183.104272,2954.698347,1653.577134,,,
15153.909,1964.013512,3183.620735,2955.276494,1653.624642,,,
15161.629,1964.397488,3184.162946,2955.866183,1653.657299,,,
15169.716,1964.795613,3184.766042,2956.513959,1653.67915,,,
15177.803,1965.178811,3185.386963,2957.180087,1653.687009,,,
15185.89,1965.539104,3186.001003,2957.843063,1653.682053,,,
15193.977,1965.864056,3186.582004,2958.477802,1653.661973,,,
15201.697,1966.130532,3187.078425,2959.028033,1653.626681,,,
15209.784,1966.356515,3187.515906,2959.520517,1653.571078,,,
15217.871,1966.508246,3187.825788,2959.876467,1653.489572,,,
15225.958,1966.583834,3187.996559,2960.077514,1653.380945,,,
15233.678,1966.569423,3187.995842,2960.081616,1653.245605,,,
15241.765,1966.456674,3187.8063,2959.863475,1653.067217,,,
15249.852,1966.241694,3187.417511,2959.405974,1652.849936,,,
15257.939,1965.905132,3186.792173,2958.659004,1652.586238,,,
15265.659,1965.48349,3186.002252,2957.706252,1652.296656,,,
15273.746,1964.924725,3184.954287,2956.430885,1651.95037,,,
15281.833,1964.255167,3183.705013,2954.898832,1651.56557,,,
15289.92,1963.485779,3182.282585,2953.142992,1651.148515,,,
15298.007,1962.614119,3180.696275,2951.171012,1650.70241,,,
15305.727,1961.711759,3179.082504,2949.153156,1650.260406,,,
15313.814,1960.700019,3177.315531,2946.929035,1649.787121,,,
15321.901,1959.641523,3175.51948,2944.652271,1649.31354,,,
15329.988,1958.555857,3173.735676,2942.374352,1648.847934,,,
15337.708,1957.511422,3172.093132,2940.25675,1648.421775,,,
15345.795,1956.428595,3170.46369,2938.136331,1647.999401,,,
15353.882,1955.376666,3168.971865,2936.17075,1647.611567,,,
15361.969,1954.373316,3167.645057,2934.39706,1647.264321,,,
15369.689,1953.470607,3166.54108,2932.897128,1646.972849,,,
15377.776,1952.603487,3165.590379,2931.575804,1646.71888,,,
15385.863,1951.815727,3164.828041,2930.48807,1646.513073,,,
15393.95,1951.120079,3164.265499,2929.653271,1646.359892,,,
15401.67,1950.543499,3163.89995,2929.078841,1646.260551,,,
15409.757,1950.026525,3163.671659,2928.682722,1646.20028,,,
15417.844,1949.607013,3163.596085,2928.49625,1646.184899,,,
15425.931,1949.269021,3163.630304,2928.46648,1646.202753,,,
15434.018,1949.01311,3163.756949,2928.574998,1646.24889,,,
15441.738,1948.83775,3163.936995,2928.774164,1646.310443,,,
15449.825,1948.714909,3164.161826,2929.048749,1646.384132,,,
15457.912,1948.653863,3164.403244,2929.36629,1646.458226,,,
15465.999,1948.639434,3164.64012,2929.695354,1646.524285,,,
15473.719,1948.666359,3164.847468,2930.000965,1646.572577,,,
15481.806,1948.729823,3165.0332,2930.294252,1646.602144,,,
15489.893,1948.822814,3165.18125,2930.550292,1646.608048,,,
15497.98,1948.944202,3165.281564,2930.755292,1646.58563,,,
15505.7,1949.079687,3165.338267,2930.907527,1646.542663,,,
15513.787,1949.241637,3165.354286,2931.017758,1646.476221,,,
15521.874,1949.420673,3165.332522,2931.084658,1646.395118,,,
15529.961,1949.613942,3165.280688,2931.117042,1646.307143,,,
15537.681,1949.811372,3165.20728,2931.120699,1646.225782,,,
15545.768,1950.027414,3165.117213,2931.10985,1646.152344,,,
15553.855,1950.25128,3165.020815,2931.092467,1646.102371,,,
15561.942,1950.479368,3164.927515,2931.079563,1646.085827,,,
15570.029,1950.708309,3164.844063,2931.079037,1646.108557,,,
15577.749,1950.92368,3164.782179,2931.100545,1646.18048,,,
15585.836,1951.142694,3164.738,2931.148947,1646.305333,,,
15593.923,1951.350398,3164.720497,2931.231743,1646.48887,,,
15602.01,1951.542891,3164.731068,2931.352736,1646.730441,,,
15609.73,1951.710546,3164.765774,2931.504105,1647.010158,,,
15617.817,1951.86405,3164.829689,2931.707361,1647.356598,,,
15625.904,1951.995977,3164.915441,2931.951495,1647.744282,,,
15633.991,1952.103815,3165.020884,2932.239805,1648.16785,,,
15641.711,1952.184931,3165.13515,2932.554978,1648.59488,,,
15649.798,1952.249809,3165.264189,2932.923118,1649.05448,,,
15657.885,1952.294608,3165.399236,2933.332618,1649.514424,,,
15665.972,1952.325619,3165.536268,2933.77547,1649.962294,,,
15673.692,1952.345587,3165.667225,2934.22862,1650.366309,,,
15681.779,1952.362112,3165.804065,2934.729856,1650.753237,,,
15689.866,1952.379196,3165.941647,2935.252569,1651.094988,,,
15697.953,1952.402939,3166.083389,2935.793116,1651.374527,,,
15706.04,1952.436993,3166.233081,2936.343163,1651.591974,,,
15713.76,1952.483032,3166.388785,2936.871931,1651.731906,,,
15721.847,1952.547485,3166.571072,2937.422566,1651.805359,,,
15729.934,1952.628232,3166.776822,2937.963916,1651.807725,,,
15738.021,1952.726573,3167.01485,2938.486715,1651.73181,,,
15745.741,1952.832362,3167.270857,2938.965032,1651.601786,,,
15753.828,1952.953406,3167.573688,2939.436232,1651.407267,,,
15761.915,1953.079544,3167.909903,2939.87225,1651.167351,,,
15770.002,1953.205765,3168.274828,2940.271265,1650.896945,,,
15777.722,1953.320454,3168.648608,2940.608703,1650.622541,,,
15785.809,1953.430643,3169.055976,2940.922074,1650.336052,,,
